time/s	Ewe/V	I/mA	error	
6.005299848293362E+001	2.9726775E+000	-2.5020160E-002	0
6.017319847989711E+001	9.4417064E-003	-1.3642487E+001	0
6.017359847988700E+001	9.3844449E-003	-1.3583274E+001	0
6.017399847987690E+001	9.2890086E-003	-1.3515149E+001	0
6.017439847986680E+001	9.5180552E-003	-1.3440018E+001	0
6.017479847985669E+001	9.2890086E-003	-1.3380805E+001	0
6.017519847984659E+001	9.4035324E-003	-1.3314590E+001	0
6.017559847983648E+001	9.3844449E-003	-1.3254105E+001	0
6.017599847982638E+001	9.3271835E-003	-1.3188525E+001	0
6.017639847981627E+001	9.4035324E-003	-1.3121037E+001	0
6.017679847980617E+001	9.4035324E-003	-1.3054184E+001	0
6.017719847979606E+001	9.3462700E-003	-1.2994971E+001	0
6.017759847978596E+001	9.3080960E-003	-1.2924298E+001	0
6.017799847977585E+001	9.2890086E-003	-1.2865723E+001	0
6.017839847976575E+001	9.3271835E-003	-1.2805236E+001	0
6.017879847975564E+001	9.4035324E-003	-1.2736473E+001	0
6.017919847974554E+001	9.3653575E-003	-1.2678535E+001	0
6.017959847973543E+001	9.3653575E-003	-1.2625053E+001	0
6.017999847972533E+001	9.4226198E-003	-1.2557563E+001	0
6.018039847971522E+001	9.3462700E-003	-1.2500261E+001	0
6.018079847970512E+001	9.3653575E-003	-1.2442959E+001	0
6.018119847969501E+001	9.4607938E-003	-1.2384383E+001	0
6.018159847968491E+001	9.3271835E-003	-1.2325171E+001	0
6.018199847967480E+001	9.4607938E-003	-1.2265959E+001	0
6.018239847966470E+001	9.2890086E-003	-1.2206746E+001	0
6.018279847965459E+001	9.3844449E-003	-1.2151991E+001	0
6.018319847964449E+001	9.3653575E-003	-1.2094051E+001	0
6.018359847963438E+001	9.3653575E-003	-1.2034203E+001	0
6.018399847962428E+001	9.4417064E-003	-1.1976900E+001	0
6.018439847961417E+001	9.4417064E-003	-1.1918324E+001	0
6.018479847960407E+001	9.3271835E-003	-1.1861659E+001	0
6.018519847959396E+001	9.3462700E-003	-1.1805631E+001	0
6.018559847958386E+001	9.3271835E-003	-1.1753421E+001	0
6.018599847957375E+001	9.4226198E-003	-1.1691663E+001	0
6.018659847955860E+001	9.3844449E-003	-1.1612075E+001	0
6.018699847954849E+001	9.3271835E-003	-1.1559230E+001	0
6.018739847953839E+001	9.4035324E-003	-1.1508295E+001	0
6.018779847952828E+001	9.3080960E-003	-1.1449718E+001	0
6.018819847951818E+001	9.3271835E-003	-1.1398147E+001	0
6.018859847950807E+001	9.2508346E-003	-1.1345939E+001	0
6.018899847949797E+001	9.3080960E-003	-1.1291183E+001	0
6.018939847948786E+001	9.4035324E-003	-1.1239611E+001	0
6.018999847947271E+001	9.3080960E-003	-1.1158751E+001	0
6.019059847945755E+001	9.3271835E-003	-1.1079801E+001	0
6.019119847944239E+001	9.3844449E-003	-1.1010401E+001	0
6.019159847943229E+001	9.4989687E-003	-1.0955646E+001	0
6.019199847942218E+001	9.4989687E-003	-1.0904711E+001	0
6.019259847940702E+001	9.2890086E-003	-1.0828307E+001	0
6.019319847939187E+001	9.3844449E-003	-1.0760818E+001	0
6.019359847938176E+001	9.3271835E-003	-1.0706698E+001	0
6.019419847936661E+001	9.4607938E-003	-1.0631570E+001	0
6.019479847935145E+001	9.3271835E-003	-1.0563443E+001	0
6.019539847933629E+001	9.2508346E-003	-1.0487040E+001	0
6.019599847932113E+001	9.3844449E-003	-1.0419551E+001	0
6.019639847931103E+001	9.3271835E-003	-1.0366705E+001	0
6.019699847929587E+001	9.3653575E-003	-1.0301126E+001	0
6.019759847928071E+001	9.3271835E-003	-1.0234273E+001	0
6.019819847926556E+001	9.3844449E-003	-1.0159780E+001	0
6.019879847925040E+001	9.3653575E-003	-1.0096747E+001	0
6.019939847923524E+001	9.3080960E-003	-1.0022254E+001	0
6.019999847922008E+001	9.3462700E-003	-9.9573107E+000	0
6.020059847920493E+001	9.2699211E-003	-9.8860025E+000	0
6.020119847918977E+001	9.3462700E-003	-9.8287001E+000	0
6.020179847917461E+001	9.4035324E-003	-9.7554798E+000	0
6.020239847915946E+001	9.3080960E-003	-9.6962681E+000	0
6.020299847914430E+001	9.3080960E-003	-9.6345081E+000	0
6.020359847912914E+001	9.3080960E-003	-9.5606518E+000	0
6.020419847911398E+001	9.3844449E-003	-9.4995298E+000	0
6.020479847909883E+001	9.3653575E-003	-9.4422274E+000	0
6.020539847908367E+001	9.4035324E-003	-9.3811054E+000	0
6.020599847906851E+001	9.4035324E-003	-9.3123426E+000	0
6.020659847905335E+001	9.4989687E-003	-9.2556772E+000	0
6.020719847903820E+001	9.4417064E-003	-9.1996479E+000	0
6.020779847902304E+001	9.4035324E-003	-9.1417084E+000	0
6.020839847900788E+001	9.2699211E-003	-9.0844059E+000	0
6.020899847899273E+001	9.2508346E-003	-9.0258303E+000	0
6.020959847897757E+001	9.4035324E-003	-8.9653454E+000	0
6.021019847896241E+001	9.3844449E-003	-8.9048586E+000	0
6.021079847894725E+001	9.3271835E-003	-8.8494663E+000	0
6.021139847893210E+001	9.4035324E-003	-8.7978945E+000	0
6.021199847891694E+001	9.4607938E-003	-8.7361355E+000	0
6.021279847889673E+001	9.3653575E-003	-8.6705561E+000	0
6.021339847888157E+001	9.3844449E-003	-8.6100712E+000	0
6.021399847886642E+001	9.3462700E-003	-8.5584984E+000	0
6.021459847885126E+001	9.4226198E-003	-8.5069275E+000	0
6.021519847883610E+001	9.3462700E-003	-8.4496241E+000	0
6.021579847882094E+001	9.3844449E-003	-8.3948679E+000	0
6.021659847880073E+001	9.4035324E-003	-8.3331099E+000	0
6.021719847878558E+001	9.4798813E-003	-8.2802639E+000	0
6.021779847877042E+001	9.3844449E-003	-8.2293282E+000	0
6.021859847875021E+001	9.4035324E-003	-8.1624756E+000	0
6.021939847873000E+001	9.3653575E-003	-8.1019907E+000	0
6.022019847870979E+001	9.3271835E-003	-8.0357742E+000	0
6.022079847869463E+001	9.3271835E-003	-7.9842010E+000	0
6.022159847867442E+001	9.3844449E-003	-7.9249892E+000	0
6.022219847865927E+001	9.3462700E-003	-7.8740544E+000	0
6.022299847863906E+001	9.4035324E-003	-7.8154783E+000	0
6.022379847861885E+001	9.3080960E-003	-7.7518096E+000	0
6.022459847859864E+001	9.4607938E-003	-7.6919599E+000	0
6.022539847857843E+001	9.3844449E-003	-7.6346579E+000	0
6.022619847855822E+001	9.4226198E-003	-7.5748086E+000	0
6.022699847853801E+001	9.3271835E-003	-7.5187802E+000	0
6.022779847851780E+001	9.3844449E-003	-7.4589310E+000	0
6.022859847849759E+001	9.3271835E-003	-7.4086318E+000	0
6.022919847848243E+001	9.4607938E-003	-7.3564234E+000	0
6.022999847846222E+001	9.4226198E-003	-7.3016677E+000	0
6.023099847843696E+001	9.3080960E-003	-7.2424550E+000	0
6.023199847841170E+001	9.4226198E-003	-7.1736922E+000	0
6.023279847839149E+001	9.3462700E-003	-7.1195741E+000	0
6.023379847836623E+001	9.3462700E-003	-7.0660915E+000	0
6.023459847834602E+001	9.3271835E-003	-7.0138831E+000	0
6.023539847832581E+001	9.3462700E-003	-6.9591274E+000	0
6.023639847830054E+001	9.3653575E-003	-6.8986411E+000	0
6.023739847827528E+001	9.4035324E-003	-6.8394294E+000	0
6.023839847825002E+001	9.3653575E-003	-6.7814903E+000	0
6.023919847822981E+001	9.3653575E-003	-6.7311912E+000	0
6.024019847820455E+001	9.4417064E-003	-6.6713428E+000	0
6.024119847817929E+001	9.3462700E-003	-6.6121302E+000	0
6.024219847815402E+001	9.3271835E-003	-6.5522809E+000	0
6.024339847812371E+001	9.4607938E-003	-6.4809713E+000	0
6.024459847809339E+001	9.4035324E-003	-6.4230323E+000	0
6.024579847806308E+001	9.4417064E-003	-6.3644562E+000	0
6.024679847803782E+001	9.3653575E-003	-6.3122478E+000	0
6.024799847800750E+001	9.3844449E-003	-6.2485790E+000	0
6.024919847797719E+001	9.3653575E-003	-6.1919131E+000	0
6.025019847795193E+001	9.3462700E-003	-6.1377945E+000	0
6.025139847792161E+001	9.3653575E-003	-6.0836754E+000	0
6.025239847789635E+001	9.3844449E-003	-6.0321035E+000	0
6.025359847786604E+001	9.4035324E-003	-5.9760747E+000	0
6.025479847783572E+001	9.3653575E-003	-5.9232287E+000	0
6.025579847781046E+001	9.3271835E-003	-5.8716564E+000	0
6.025699847778014E+001	9.3271835E-003	-5.8213582E+000	0
6.025819847774983E+001	9.3844449E-003	-5.7697864E+000	0
6.025959847771446E+001	9.3844449E-003	-5.7099376E+000	0
6.026099847767910E+001	9.4607938E-003	-5.6481776E+000	0
6.026239847764373E+001	9.2699211E-003	-5.5902390E+000	0
6.026359847761341E+001	9.3462700E-003	-5.5380306E+000	0
6.026519847757299E+001	9.3844449E-003	-5.4769077E+000	0
6.026659847753763E+001	9.3462700E-003	-5.4151487E+000	0
6.026819847749721E+001	9.3844449E-003	-5.3610296E+000	0
6.026959847746184E+001	9.3462700E-003	-5.3075476E+000	0
6.027099847742647E+001	9.4226198E-003	-5.2572489E+000	0
6.027259847738605E+001	9.4226198E-003	-5.2024932E+000	0
6.027419847734564E+001	9.3271835E-003	-5.1420074E+000	0
6.027579847730522E+001	9.3462700E-003	-5.0885248E+000	0
6.027759847725974E+001	9.3844449E-003	-5.0254927E+000	0
6.027939847721427E+001	9.3462700E-003	-4.9701004E+000	0
6.028119847716880E+001	9.2508346E-003	-4.9096141E+000	0
6.028299847712333E+001	9.4417064E-003	-4.8529491E+000	0
6.028479847707786E+001	9.3462700E-003	-4.8007402E+000	0
6.028659847703238E+001	9.4226198E-003	-4.7491679E+000	0
6.028839847698691E+001	9.3271835E-003	-4.6925025E+000	0
6.029059847693134E+001	9.3844449E-003	-4.6339269E+000	0
6.029259847688081E+001	9.4035324E-003	-4.5798082E+000	0
6.029459847683029E+001	9.3653575E-003	-4.5288725E+000	0
6.029659847677976E+001	9.3080960E-003	-4.4779372E+000	0
6.029839847673429E+001	9.4035324E-003	-4.4276385E+000	0
6.030039847668377E+001	9.2890086E-003	-4.3735199E+000	0
6.030259847662819E+001	9.3653575E-003	-4.3232207E+000	0
6.030459847657767E+001	9.3653575E-003	-4.2716489E+000	0
6.030739847650693E+001	9.3462700E-003	-4.2130733E+000	0
6.030999847644125E+001	9.4226198E-003	-4.1525874E+000	0
6.031259847637557E+001	9.3844449E-003	-4.0997419E+000	0
6.031499847631494E+001	9.4989687E-003	-4.0475330E+000	0
6.031739847625431E+001	9.3844449E-003	-3.9965975E+000	0
6.032019847618358E+001	9.4607938E-003	-3.9462988E+000	0
6.032259847612295E+001	9.3653575E-003	-3.8960006E+000	0
6.032559847604716E+001	9.3844449E-003	-3.8386979E+000	0
6.032879847596632E+001	9.4607938E-003	-3.7813959E+000	0
6.033179847589054E+001	9.3653575E-003	-3.7221832E+000	0
6.033539847579959E+001	9.3653575E-003	-3.6655178E+000	0
6.033859847571875E+001	9.4417064E-003	-3.6113989E+000	0
6.034239847562276E+001	9.3653575E-003	-3.5591903E+000	0
6.034579847553687E+001	9.4798813E-003	-3.5031614E+000	0
6.034899847545603E+001	9.3271835E-003	-3.4509523E+000	0
6.035319847534993E+001	9.3271835E-003	-3.3968334E+000	0
6.035739847524383E+001	9.2699211E-003	-3.3452613E+000	0
6.036099847515288E+001	9.3462700E-003	-3.2949631E+000	0
6.036499847505183E+001	9.4226198E-003	-3.2440274E+000	0
6.036919847494573E+001	9.3080960E-003	-3.1879985E+000	0
6.040339847408177E+001	9.2890086E-003	-2.8502066E+000	0
6.040899847394030E+001	9.3653575E-003	-2.7993717E+000	0
6.041499847378873E+001	9.3653575E-003	-2.7492998E+000	0
6.042099847363716E+001	9.3271835E-003	-2.6989739E+000	0
6.042739847347548E+001	9.3462700E-003	-2.6483934E+000	0
6.043399847330875E+001	9.4417064E-003	-2.5981307E+000	0
6.044099847313191E+001	9.4417064E-003	-2.5472958E+000	0
6.044839847294497E+001	9.4226198E-003	-2.4962702E+000	0
6.045579847275803E+001	9.4607938E-003	-2.4461348E+000	0
6.046399847255088E+001	9.3080960E-003	-2.3952999E+000	0
6.047219847234373E+001	9.2126597E-003	-2.3452919E+000	0
6.048099847212143E+001	9.3462700E-003	-2.2947750E+000	0
6.049019847188902E+001	9.4226198E-003	-2.2440033E+000	0
6.049979847164650E+001	9.4226198E-003	-2.1935501E+000	0
6.050999847138883E+001	9.4607938E-003	-2.1430967E+000	0
6.052059847112105E+001	9.4417064E-003	-2.0925798E+000	0
6.053199847083306E+001	9.3462700E-003	-2.0420628E+000	0
6.054399847052991E+001	9.3271835E-003	-1.9912914E+000	0
6.055659847021161E+001	9.3653575E-003	-1.9411561E+000	0
6.056979846987815E+001	9.2317471E-003	-1.8910847E+000	0
6.058419846951438E+001	9.3080960E-003	-1.8404404E+000	0
6.059939846913039E+001	9.3653575E-003	-1.7899234E+000	0
6.061539846872620E+001	9.4226198E-003	-1.7395339E+000	0
6.063259846829169E+001	9.3271835E-003	-1.6893351E+000	0
6.065139846781676E+001	9.3844449E-003	-1.6390724E+000	0
6.067139846731152E+001	9.4035324E-003	-1.5879194E+000	0
6.069279846677091E+001	9.3080960E-003	-1.5377842E+000	0
6.071559846619493E+001	9.3271835E-003	-1.4877126E+000	0
6.074139846554317E+001	9.3462700E-003	-1.4373865E+000	0
6.076919846484088E+001	9.3462700E-003	-1.3866152E+000	0
6.079959846407291E+001	9.4417064E-003	-1.3359709E+000	0
6.083299846322916E+001	9.3271835E-003	-1.2853904E+000	0
6.086979846229951E+001	9.3080960E-003	-1.2351280E+000	0
6.091039846127387E+001	9.4607938E-003	-1.1848019E+000	0
6.095599846012192E+001	9.3271835E-003	-1.1344122E+000	0
6.100719845882850E+001	9.4226198E-003	-1.0837045E+000	0
6.106419845738856E+001	9.3462700E-003	-1.0336965E+000	0
6.112919845574652E+001	9.2317471E-003	-9.8362482E-001	0
6.120399845385691E+001	9.3080960E-003	-9.3329883E-001	0
6.128959845169447E+001	9.3653575E-003	-8.8322723E-001	0
6.138879844918847E+001	9.2890086E-003	-8.3315563E-001	0
6.150819844617217E+001	9.3653575E-003	-7.8263867E-001	0
6.164859844262537E+001	9.4607938E-003	-7.3263079E-001	0
6.181999843829544E+001	9.2699211E-003	-6.8255919E-001	0
6.202819843303587E+001	9.4226198E-003	-6.3216949E-001	0
6.228879842645256E+001	9.2508346E-003	-5.8209795E-001	0
6.262279841801501E+001	9.3080960E-003	-5.3202641E-001	0
6.306219840691483E+001	9.4035324E-003	-4.8195481E-001	0
6.369219839099969E+001	9.4226198E-003	-4.3190381E-001	0
6.454339836949657E+001	9.3462700E-003	-3.8187450E-001	0
6.505279835662805E+001	9.3271835E-003	-3.5956147E-001	0
6.505339835659834E+001	9.3080960E-003	-3.5895050E-001	0
6.656339831845253E+001	9.3653575E-003	-3.0890208E-001	0
6.896559825776785E+001	9.3080960E-003	-2.5889185E-001	0
7.320419815069181E+001	9.3462700E-003	-2.0886891E-001	0
8.152519794048567E+001	9.3462700E-003	-1.5878230E-001	0
9.152519768786442E+001	9.3080960E-003	-1.2734932E-001	0
1.015251974352432E+002	9.3462700E-003	-1.0816112E-001	0
1.115251971826219E+002	9.2699211E-003	-9.4255246E-002	0
1.215251969300007E+002	9.2890086E-003	-8.3181463E-002	0
1.315251966773794E+002	9.3271835E-003	-7.5385265E-002	0
1.415251964247582E+002	9.3462700E-003	-6.8842821E-002	0
1.515251961721369E+002	9.4035324E-003	-6.3356847E-002	0
1.615251959195157E+002	9.3844449E-003	-5.8761857E-002	0
1.715251956668944E+002	9.2699211E-003	-5.4669656E-002	0
1.815251954142732E+002	9.3462700E-003	-5.1283874E-002	0
1.915251951616519E+002	9.3653575E-003	-4.8413597E-002	0
2.015251949090307E+002	9.3844449E-003	-4.5867901E-002	0
2.115251946564094E+002	9.3844449E-003	-4.3455265E-002	0
2.215251944037882E+002	9.2890086E-003	-4.1354977E-002	0
2.315251941511669E+002	9.4035324E-003	-3.9601445E-002	0
2.415251938985457E+002	9.3462700E-003	-3.7802745E-002	0
2.515251936459244E+002	9.3462700E-003	-3.6088668E-002	0
2.615251933933032E+002	9.4226198E-003	-3.4738522E-002	0
2.715251931406819E+002	9.4226198E-003	-3.3439919E-002	0
2.815251928880607E+002	9.3271835E-003	-3.2143224E-002	0
2.915251926354395E+002	9.4035324E-003	-3.0794356E-002	0
3.015251923828182E+002	9.3653575E-003	-2.9736893E-002	0
3.115251921301970E+002	9.4226198E-003	-2.8946025E-002	0
3.215251918775757E+002	9.3462700E-003	-2.7888563E-002	0
3.315251916249545E+002	9.2890086E-003	-2.6940538E-002	0
3.415251913723332E+002	9.4035324E-003	-2.6113402E-002	0
3.515251911197120E+002	9.3462700E-003	-2.5243001E-002	0
3.615251908670907E+002	9.3462700E-003	-2.4524666E-002	0
3.715251906144695E+002	9.3080960E-003	-2.3731887E-002	0
3.815251903618482E+002	9.3462700E-003	-2.3032639E-002	0
3.915251901092270E+002	9.3271835E-003	-2.2437738E-002	0
4.015251898566057E+002	9.3844449E-003	-2.1812933E-002	0
4.115251896039845E+002	9.5180552E-003	-2.1159496E-002	0
4.215251893513632E+002	9.2890086E-003	-2.0620583E-002	0
4.315251890987420E+002	9.3844449E-003	-2.0161204E-002	0
4.415251888461207E+002	9.3462700E-003	-1.9538308E-002	0
4.515251885934995E+002	9.3271835E-003	-1.8950403E-002	0
4.615251883408782E+002	9.2699211E-003	-1.8524110E-002	0
4.715251880882570E+002	9.4226198E-003	-1.7843314E-002	0
4.815251878356357E+002	9.4417064E-003	-1.7003452E-002	0
4.915251875830145E+002	9.3080960E-003	-1.6293388E-002	0
5.015251873303932E+002	9.3844449E-003	-1.5791381E-002	0
5.115251870777720E+002	9.4035324E-003	-1.5322457E-002	0
5.215251868251507E+002	9.3844449E-003	-1.4816632E-002	0
5.315251865725295E+002	9.4226198E-003	-1.4411972E-002	0
5.415251863199082E+002	9.3462700E-003	-1.4076027E-002	0
5.515251860672870E+002	9.4607938E-003	-1.3791620E-002	0
5.615251858146657E+002	9.4035324E-003	-1.3379324E-002	0
5.715251855620445E+002	9.3844449E-003	-1.3107643E-002	0
5.815251853094233E+002	9.3844449E-003	-1.2783786E-002	0
5.915251850568020E+002	9.3080960E-003	-1.2481564E-002	0
6.015251848041808E+002	9.3844449E-003	-1.2222607E-002	0
6.115251845515595E+002	9.3271835E-003	-1.1947107E-002	0
6.215251842989383E+002	9.3462700E-003	-1.1690694E-002	0
6.315251840463170E+002	9.3080960E-003	-1.1385290E-002	0
6.415251837936958E+002	9.4226198E-003	-1.1171508E-002	0
6.515251835410745E+002	9.4798813E-003	-1.0917003E-002	0
6.615251832884533E+002	9.3080960E-003	-1.0771937E-002	0
6.715251830358320E+002	9.3462700E-003	-1.0538431E-002	0
6.815251827832108E+002	9.4417064E-003	-1.0243842E-002	0
6.915251825305895E+002	9.3271835E-003	-1.0085414E-002	0
7.015251822779683E+002	9.4607938E-003	-9.9136243E-003	0
7.115251820253470E+002	9.4417064E-003	-9.6693011E-003	0
7.215251817727258E+002	9.4417064E-003	-9.6215820E-003	0
7.315251815201045E+002	9.3653575E-003	-9.3002710E-003	0
7.415251812674833E+002	9.4226198E-003	-9.1093928E-003	0
7.515251810148620E+002	9.4417064E-003	-9.0228617E-003	0
7.615251807622408E+002	9.4035324E-003	-8.8294400E-003	0
7.715251805096195E+002	9.2890086E-003	-8.7327277E-003	0
7.815251802569983E+002	9.3462700E-003	-8.5399412E-003	0
7.915251800043770E+002	9.3844449E-003	-8.3751511E-003	0
8.015251797517558E+002	9.4035324E-003	-8.2358103E-003	0
8.115251794991345E+002	9.3844449E-003	-8.1467330E-003	0
8.215251792465133E+002	9.3462700E-003	-7.9622185E-003	0
8.315251789938920E+002	9.3844449E-003	-7.8597823E-003	0
8.415251787412708E+002	9.2699211E-003	-7.6644500E-003	0
8.515251784886495E+002	9.3080960E-003	-7.5531052E-003	0
8.615251782360283E+002	9.3653575E-003	-7.4710273E-003	0
8.715251779834070E+002	9.3844449E-003	-7.2534271E-003	0
8.815251777307858E+002	9.3080960E-003	-7.3024188E-003	0
8.915251774781646E+002	9.3653575E-003	-7.1338108E-003	0
9.015251772255433E+002	9.3653575E-003	-7.0536421E-003	0
9.115251769729221E+002	9.3653575E-003	-6.9410242E-003	0
9.215251767203008E+002	9.3462700E-003	-6.8010469E-003	0
9.315251764676796E+002	9.3653575E-003	-6.6203503E-003	0
9.415251762150583E+002	9.3844449E-003	-6.5357275E-003	0
9.515251759624371E+002	9.4226198E-003	-6.4956425E-003	0
9.615251757098158E+002	9.4035324E-003	-6.3550305E-003	0
9.715251754571946E+002	9.3080960E-003	-6.2195072E-003	0
9.815251752045733E+002	9.3462700E-003	-6.2016919E-003	0
9.915251749519521E+002	9.3271835E-003	-6.0464446E-003	0
1.001525174699331E+003	9.3653575E-003	-5.9987255E-003	0
1.011525174446710E+003	9.3462700E-003	-5.9688208E-003	0
1.021525174194088E+003	9.2699211E-003	-5.9039230E-003	0
1.031525173941467E+003	9.3271835E-003	-5.7130451E-003	0
1.041525173688846E+003	9.3080960E-003	-5.7658548E-003	0
1.051525173436225E+003	9.3462700E-003	-5.6576906E-003	0
1.061525173183603E+003	9.3080960E-003	-5.5628885E-003	0
1.071525172930982E+003	9.3271835E-003	-5.4470892E-003	0
1.081525172678361E+003	9.3080960E-003	-5.4642684E-003	0
1.091525172425740E+003	9.3462700E-003	-5.3071124E-003	0
1.101525172173118E+003	9.3844449E-003	-5.2135824E-003	0
1.111525171920497E+003	9.4035324E-003	-5.2619381E-003	0
1.121525171667876E+003	9.3653575E-003	-5.1626815E-003	0
1.131525171415255E+003	9.3653575E-003	-5.0589712E-003	0
1.141525171162633E+003	9.3080960E-003	-5.0163418E-003	0
1.151525170910012E+003	9.2699211E-003	-4.9196305E-003	0
1.161525170657391E+003	9.4035324E-003	-4.9578059E-003	0
1.171525170404770E+003	9.3271835E-003	-4.9209036E-003	0
1.181525170152148E+003	9.4226198E-003	-4.7993776E-003	0
1.191525169899527E+003	9.3271835E-003	-4.7395695E-003	0
1.201525169646906E+003	9.3844449E-003	-4.6594008E-003	0
1.211525169394285E+003	9.2890086E-003	-4.6963040E-003	0
1.221525169141663E+003	9.2317471E-003	-4.5836861E-003	0
1.231525168889042E+003	9.3080960E-003	-4.5124255E-003	0
1.241525168636421E+003	9.4035324E-003	-4.5244899E-003	0
1.251525168383800E+003	9.3271835E-003	-4.4644079E-003	0
1.261525168131178E+003	9.2890086E-003	-4.4504059E-003	0
1.271525167878557E+003	9.3844449E-003	-4.3571000E-003	0
1.281525167625936E+003	9.3653575E-003	-4.3205037E-003	0
1.291525167373315E+003	9.3653575E-003	-4.2630313E-003	0
1.301525167120693E+003	9.3653575E-003	-4.2288532E-003	0
1.311525166868072E+003	9.3653575E-003	-4.1592880E-003	0
1.321525166615451E+003	9.2890086E-003	-4.1385395E-003	0
1.331525166362830E+003	9.3271835E-003	-4.1049975E-003	0
1.341525166110208E+003	9.3653575E-003	-4.0646461E-003	0
1.351525165857587E+003	9.3271835E-003	-4.0349229E-003	0
1.361525165604966E+003	9.5753176E-003	-3.9460729E-003	0
1.371525165352345E+003	9.4417064E-003	-3.9167320E-003	0
1.381525165099723E+003	9.3271835E-003	-3.9134226E-003	0
1.391525164847102E+003	9.3462700E-003	-3.8934373E-003	0
1.401525164594481E+003	9.3080960E-003	-3.8429024E-003	0
1.411525164341860E+003	9.4035324E-003	-3.7761377E-003	0
1.421525164089238E+003	9.4607938E-003	-3.7636629E-003	0
1.431525163836617E+003	9.2890086E-003	-3.7177738E-003	0
1.441525163583996E+003	9.4035324E-003	-3.6736671E-003	0
1.451525163331375E+003	9.2890086E-003	-3.6617655E-003	0
1.461525163078753E+003	9.3653575E-003	-3.6318514E-003	0
1.471525162826132E+003	9.3462700E-003	-3.5823984E-003	0
1.481525162573511E+003	9.4226198E-003	-3.5768612E-003	0
1.491525162320890E+003	9.3844449E-003	-3.5398190E-003	0
1.501525162068268E+003	9.3844449E-003	-3.5131513E-003	0
1.511525161815647E+003	9.4798813E-003	-3.4832377E-003	0
1.521525161563026E+003	9.2699211E-003	-3.4426949E-003	0
1.531525161310405E+003	9.3080960E-003	-3.4183820E-003	0
1.541525161057783E+003	9.3653575E-003	-3.3794942E-003	0
1.551525160805162E+003	9.3271835E-003	-3.3843315E-003	0
1.561525160552541E+003	9.3844449E-003	-3.3565818E-003	0
1.571525160299920E+003	9.4417064E-003	-3.3230402E-003	0
1.581525160047298E+003	9.4035324E-003	-3.2818611E-003	0
1.591525159794677E+003	9.3080960E-003	-3.2763237E-003	0
1.601525159542056E+003	9.3653575E-003	-3.2268707E-003	0
1.611525159289435E+003	9.3844449E-003	-3.1969571E-003	0
1.621525159036813E+003	9.4226198E-003	-3.1557144E-003	0
1.631525158784192E+003	9.2317471E-003	-3.1739804E-003	0
1.641525158531571E+003	9.5180552E-003	-3.1429850E-003	0
1.651525158278950E+003	9.3844449E-003	-3.1066430E-003	0
1.661525158026328E+003	9.3271835E-003	-3.0776204E-003	0
1.671525157773707E+003	9.3844449E-003	-3.0826486E-003	0
1.681525157521086E+003	9.3462700E-003	-3.0531802E-003	0
1.691525157268465E+003	9.3271835E-003	-3.0324953E-003	0
1.701525157015843E+003	9.4798813E-003	-2.9990175E-003	0
1.711525156763222E+003	9.2317471E-003	-2.9800511E-003	0
1.721525156510601E+003	9.3271835E-003	-2.9607024E-003	0
1.731525156257980E+003	9.2890086E-003	-2.9229603E-003	0
1.741525156005358E+003	9.3844449E-003	-2.8866818E-003	0
1.751525155752737E+003	9.2508346E-003	-2.9003022E-003	0
1.761525155500116E+003	9.2890086E-003	-2.8971834E-003	0
1.771525155247495E+003	9.3080960E-003	-2.8344919E-003	0
1.781525154994873E+003	9.4035324E-003	-2.8408568E-003	0
1.791525154742252E+003	9.4226198E-003	-2.8066786E-003	0
1.801525154489631E+003	9.3653575E-003	-2.8279363E-003	0
1.811525154237010E+003	9.3462700E-003	-2.7667086E-003	0
1.821525153984388E+003	9.2699211E-003	-2.7569707E-003	0
1.831525153731767E+003	9.3653575E-003	-2.7492696E-003	0
1.841525153479146E+003	9.3462700E-003	-2.7631447E-003	0
1.851525153226525E+003	9.3271835E-003	-2.7094269E-003	0
1.861525152973903E+003	9.4226198E-003	-2.7060539E-003	0
1.871525152721282E+003	9.3462700E-003	-2.6884878E-003	0
1.881525152468661E+003	9.4226198E-003	-2.6525273E-003	0
1.891525152216040E+003	9.2890086E-003	-2.6253506E-003	0
1.901525151963418E+003	9.3653575E-003	-2.6240139E-003	0
1.911525151710797E+003	9.3844449E-003	-2.5905361E-003	0
1.921525151458176E+003	9.3844449E-003	-2.5708056E-003	0
1.931525151205555E+003	9.4226198E-003	-2.5736699E-003	0
1.941525150952933E+003	9.3844449E-003	-2.5874812E-003	0
1.951525150700312E+003	9.3080960E-003	-2.5585855E-003	0
1.961525150447691E+003	9.3653575E-003	-2.5244714E-003	0
1.971525150195070E+003	9.4035324E-003	-2.5002221E-003	0
1.981525149942448E+003	9.3462700E-003	-2.5014947E-003	0
1.991525149689827E+003	9.2699211E-003	-2.4885111E-003	0
2.001525149437206E+003	9.4798813E-003	-2.4596793E-003	0
2.011525149184585E+003	9.2890086E-003	-2.4576429E-003	0
2.021525148931963E+003	9.2890086E-003	-2.4426223E-003	0
2.031525148679342E+003	9.4417064E-003	-2.4349848E-003	0
2.041525148426721E+003	9.3462700E-003	-2.3969880E-003	0
2.051525148174100E+003	9.3271835E-003	-2.4169730E-003	0
2.061525147921478E+003	9.4035324E-003	-2.3955239E-003	0
2.071525147668857E+003	9.3653575E-003	-2.3479804E-003	0
2.081525147416236E+003	9.3080960E-003	-2.3568908E-003	0
2.091525147163615E+003	9.3462700E-003	-2.3518628E-003	0
2.101525146910994E+003	9.3271835E-003	-2.3490624E-003	0
2.111525146658372E+003	9.4417064E-003	-2.3311141E-003	0
2.121525146405751E+003	9.4417064E-003	-2.2933718E-003	0
2.131525146153130E+003	9.4035324E-003	-2.2973181E-003	0
2.141525145900509E+003	9.2890086E-003	-2.2996091E-003	0
2.151525145647887E+003	9.3271835E-003	-2.2696955E-003	0
2.161525145395266E+003	9.3271835E-003	-2.2469102E-003	0
2.171525145142645E+003	9.3844449E-003	-2.2406727E-003	0
2.181525144890024E+003	9.4035324E-003	-2.2281345E-003	0
2.191525144637402E+003	9.2890086E-003	-2.2044582E-003	0
2.201525144384781E+003	9.3271835E-003	-2.1980298E-003	0
2.211525144132160E+003	9.3271835E-003	-2.2013395E-003	0
2.221525143879539E+003	9.2317471E-003	-2.1926835E-003	0
2.231525143626917E+003	9.3653575E-003	-2.1754354E-003	0
2.241525143374296E+003	9.3653575E-003	-2.1605424E-003	0
2.251525143121675E+003	9.3462700E-003	-2.1542413E-003	0
2.261525142869054E+003	9.2508346E-003	-2.1637883E-003	0
2.271525142616432E+003	9.2317471E-003	-2.1399846E-003	0
2.281525142363811E+003	9.3653575E-003	-2.1513135E-003	0
2.291525142111190E+003	9.4035324E-003	-2.0988691E-003	0
2.301525141858569E+003	9.4035324E-003	-2.0966413E-003	0
2.311525141605947E+003	9.4607938E-003	-2.1103255E-003	0
2.321525141353326E+003	9.4226198E-003	-2.0812391E-003	0
2.331525141100705E+003	9.3080960E-003	-2.0673641E-003	0
2.341525140848084E+003	9.3653575E-003	-2.0914862E-003	0
2.351525140595462E+003	9.3080960E-003	-2.0778021E-003	0
2.361525140342841E+003	9.3653575E-003	-2.0310858E-003	0
2.371525140090220E+003	9.3653575E-003	-2.0436242E-003	0
2.381525139837599E+003	9.3653575E-003	-2.0394234E-003	0
2.391525139584977E+003	9.3844449E-003	-2.0191842E-003	0
2.401525139332356E+003	9.3271835E-003	-2.0368139E-003	0
2.411525139079735E+003	9.3271835E-003	-2.0045454E-003	0
2.421525138827114E+003	9.3844449E-003	-1.9836058E-003	0
2.431525138574492E+003	9.2699211E-003	-1.9844330E-003	0
2.441525138321871E+003	9.3462700E-003	-1.9872973E-003	0
2.451525138069250E+003	9.2508346E-003	-1.9656576E-003	0
2.461525137816629E+003	9.3844449E-003	-1.9748863E-003	0
2.471525137564007E+003	9.3080960E-003	-1.9654667E-003	0
2.481525137311386E+003	9.3271835E-003	-1.9545194E-003	0
2.491525137058765E+003	9.3462700E-003	-1.9365711E-003	0
2.501525136806144E+003	9.3653575E-003	-1.9493640E-003	0
2.511525136553522E+003	9.3462700E-003	-1.9104125E-003	0
2.521525136300901E+003	9.4226198E-003	-1.9234602E-003	0
2.531525136048280E+003	9.3653575E-003	-1.8919552E-003	0
2.541525135795659E+003	9.2890086E-003	-1.9167772E-003	0
2.551525135543037E+003	9.3653575E-003	-1.8848905E-003	0
2.561525135290416E+003	9.2890086E-003	-1.8609595E-003	0
2.571525135037795E+003	9.4226198E-003	-1.8722885E-003	0
2.581525134785174E+003	9.2890086E-003	-1.8599411E-003	0
2.591525134532552E+003	9.3844449E-003	-1.8369649E-003	0
2.601525134279931E+003	9.3462700E-003	-1.8565678E-003	0
2.611525134027310E+003	9.3462700E-003	-1.8220079E-003	0
2.621525133774689E+003	9.2699211E-003	-1.8150705E-003	0
2.631525133522067E+003	9.3844449E-003	-1.8049508E-003	0
2.641525133269446E+003	9.3653575E-003	-1.8277360E-003	0
2.651525133016825E+003	9.3462700E-003	-1.7965495E-003	0
2.661525132764204E+003	9.1744857E-003	-1.7988407E-003	0
2.671525132511582E+003	9.4226198E-003	-1.7795559E-003	0
2.681525132258961E+003	9.3271835E-003	-1.7633897E-003	0
2.691525132006340E+003	9.3462700E-003	-1.7812108E-003	0
2.701525131753719E+003	9.3271835E-003	-1.7635807E-003	0
2.711525131501097E+003	9.4035324E-003	-1.7750370E-003	0
2.721525131248476E+003	9.2508346E-003	-1.7492602E-003	0
2.731525130995855E+003	9.4035324E-003	-1.7581708E-003	0
2.741525130743234E+003	9.4035324E-003	-1.7545430E-003	0
2.751525130490612E+003	9.3080960E-003	-1.7483055E-003	0
2.761525130237991E+003	9.3462700E-003	-1.7305483E-003	0
2.771525129985370E+003	9.3080960E-003	-1.7095451E-003	0
2.781525129732749E+003	9.4226198E-003	-1.7190283E-003	0
2.791525129480127E+003	9.2890086E-003	-1.7025440E-003	0
2.801525129227506E+003	9.3271835E-003	-1.6856777E-003	0
2.811525128974885E+003	9.3271835E-003	-1.6770218E-003	0
2.821525128722264E+003	9.3080960E-003	-1.7066174E-003	0
2.831525128469642E+003	9.3080960E-003	-1.6838957E-003	0
2.841525128217021E+003	9.3462700E-003	-1.6801405E-003	0
2.851525127964400E+003	9.3462700E-003	-1.7025440E-003	0
2.861525127711779E+003	9.4035324E-003	-1.6483174E-003	0
2.871525127459157E+003	9.3271835E-003	-1.6607922E-003	0
2.881525127206536E+003	9.3080960E-003	-1.6566551E-003	0
2.891525126953915E+003	9.3271835E-003	-1.6581189E-003	0
2.901525126701294E+003	9.3653575E-003	-1.6537909E-003	0
2.911525126448672E+003	9.4035324E-003	-1.6406799E-003	0
2.921525126196051E+003	9.4607938E-003	-1.6398524E-003	0
2.931525125943430E+003	9.3462700E-003	-1.6429075E-003	0
2.941525125690809E+003	9.4035324E-003	-1.6287781E-003	0
2.951525125438187E+003	9.3653575E-003	-1.5996918E-003	0
2.961525125185566E+003	9.3844449E-003	-1.6063746E-003	0
2.971525124932945E+003	9.4417064E-003	-1.5880445E-003	0
2.981525124680324E+003	9.3653575E-003	-1.6102570E-003	0
2.991525124427702E+003	9.3462700E-003	-1.6086658E-003	0
3.001525124175081E+003	9.3080960E-003	-1.5867716E-003	0
3.011525123922460E+003	9.3844449E-003	-1.5868989E-003	0
3.021525123669839E+003	9.3080960E-003	-1.5895085E-003	0
3.031525123417217E+003	9.3462700E-003	-1.5639226E-003	0
3.041525123164596E+003	9.2699211E-003	-1.5811707E-003	0
3.051525122911975E+003	9.3462700E-003	-1.5781792E-003	0
3.061525122659354E+003	9.2890086E-003	-1.5867716E-003	0
3.071525122406732E+003	9.3080960E-003	-1.5673594E-003	0
3.081525122154111E+003	9.4035324E-003	-1.5624587E-003	0
3.091525121901490E+003	9.3462700E-003	-1.5311448E-003	0
3.101525121648869E+003	9.4035324E-003	-1.5600402E-003	0
3.111525121396247E+003	9.3271835E-003	-1.5218526E-003	0
3.121525121143626E+003	9.4035324E-003	-1.5121145E-003	0
3.131525120891005E+003	9.3844449E-003	-1.5204523E-003	0
3.141525120638384E+003	9.2699211E-003	-1.5095051E-003	0
3.151525120385762E+003	9.3080960E-003	-1.5242711E-003	0
3.161525120133141E+003	9.4417064E-003	-1.4932754E-003	0
3.171525119880520E+003	9.3462700E-003	-1.4848104E-003	0
3.181525119627899E+003	9.3462700E-003	-1.4827737E-003	0
3.191525119375277E+003	9.3271835E-003	-1.4834738E-003	0
3.201525119122656E+003	9.3462700E-003	-1.5133240E-003	0
3.211525118870035E+003	9.3844449E-003	-1.4421674E-003	0
3.221525118617414E+003	9.3844449E-003	-1.5014221E-003	0
3.231525118364792E+003	9.3653575E-003	-1.4881201E-003	0
3.241525118112171E+003	9.3080960E-003	-1.4787003E-003	0
3.251525117859550E+003	9.3653575E-003	-1.4592245E-003	0
3.261525117606929E+003	9.3271835E-003	-1.4659712E-003	0
3.271525117354307E+003	9.4035324E-003	-1.4783185E-003	0
3.281525117101686E+003	9.3653575E-003	-1.4492321E-003	0
3.291525116849065E+003	9.3271835E-003	-1.4143541E-003	0
3.301525116596444E+003	9.4607938E-003	-1.4360574E-003	0
3.311525116343822E+003	9.3653575E-003	-1.4633617E-003	0
3.321525116091201E+003	9.3462700E-003	-1.4084349E-003	0
3.331525115838580E+003	9.3271835E-003	-1.4492321E-003	0
3.341525115585959E+003	9.3653575E-003	-1.4169636E-003	0
3.351525115333337E+003	9.2699211E-003	-1.4096441E-003	0
3.361525115080716E+003	9.2890086E-003	-1.4036614E-003	0
3.371525114828095E+003	9.3080960E-003	-1.4080531E-003	0
3.381525114575474E+003	9.3462700E-003	-1.4107261E-003	0
3.391525114322852E+003	9.3844449E-003	-1.4237736E-003	0
3.401525114070231E+003	9.3844449E-003	-1.3773757E-003	0
3.411525113817610E+003	9.3653575E-003	-1.3762937E-003	0
3.421525113564989E+003	9.3653575E-003	-1.4152451E-003	0
3.431525113312367E+003	9.2890086E-003	-1.3870498E-003	0
3.441525113059746E+003	9.3080960E-003	-1.4160725E-003	0
3.451525112807125E+003	9.3462700E-003	-1.3668103E-003	0
3.461525112554504E+003	9.4035324E-003	-1.3739388E-003	0
3.471525112301882E+003	9.3653575E-003	-1.3830401E-003	0
3.481525112049261E+003	9.4035324E-003	-1.3596819E-003	0
3.491525111796640E+003	9.3462700E-003	-1.3582181E-003	0
3.501525111544019E+003	9.4035324E-003	-1.3558633E-003	0
3.511525111291397E+003	9.3462700E-003	-1.3451070E-003	0
3.521525111038776E+003	9.3271835E-003	-1.3610185E-003	0
3.531525110786155E+003	9.4226198E-003	-1.3161480E-003	0
3.541525110533534E+003	9.4417064E-003	-1.3380423E-003	0
3.551525110280912E+003	9.4226198E-003	-1.3600002E-003	0
3.561525110028291E+003	9.3844449E-003	-1.3386151E-003	0
3.571525109775670E+003	9.3271835E-003	-1.3473346E-003	0
3.581525109523049E+003	9.3844449E-003	-1.3301501E-003	0
3.591525109270427E+003	9.4226198E-003	-1.3311049E-003	0
3.601525109017806E+003	9.3653575E-003	-1.3237220E-003	0
3.611525108765185E+003	9.3080960E-003	-1.3190757E-003	0
3.621525108512564E+003	9.3653575E-003	-1.3243584E-003	0
3.631525108259943E+003	9.4417064E-003	-1.2986453E-003	0
3.641525108007321E+003	9.4035324E-003	-1.3028458E-003	0
3.651525107754700E+003	9.3653575E-003	-1.2970541E-003	0
3.661525107502079E+003	9.3844449E-003	-1.3150024E-003	0
3.671525107249458E+003	9.3462700E-003	-1.2962268E-003	0
3.681525106996836E+003	9.3271835E-003	-1.2943173E-003	0
3.691525106744215E+003	9.3844449E-003	-1.3197121E-003	0
3.701525106491594E+003	9.2317471E-003	-1.2715956E-003	0
3.711525106238973E+003	9.3271835E-003	-1.3115654E-003	0
3.721525105986351E+003	9.3653575E-003	-1.2986453E-003	0
3.731525105733730E+003	9.4226198E-003	-1.2365266E-003	0
3.741525105481109E+003	9.3271835E-003	-1.2937444E-003	0
3.751525105228488E+003	9.4607938E-003	-1.2485557E-003	0
3.761525104975866E+003	9.4417064E-003	-1.2822244E-003	0
3.771525104723245E+003	9.3080960E-003	-1.2383086E-003	0
3.781525104470624E+003	9.4607938E-003	-1.2644673E-003	0
3.791525104218003E+003	9.2890086E-003	-1.2829247E-003	0
3.801525103965381E+003	9.3271835E-003	-1.2570843E-003	0
3.811525103712760E+003	9.3080960E-003	-1.2483648E-003	0
3.821525103460139E+003	9.4607938E-003	-1.2271706E-003	0
3.831525103207518E+003	9.3653575E-003	-1.2287616E-003	0
3.841525102954896E+003	9.3844449E-003	-1.2520562E-003	0
3.851525102702275E+003	9.2699211E-003	-1.2120228E-003	0
3.861525102449654E+003	9.3844449E-003	-1.2544749E-003	0
3.871525102197033E+003	9.2890086E-003	-1.2382451E-003	0
3.881525101944411E+003	9.3271835E-003	-1.2111954E-003	0
3.891525101691790E+003	9.3653575E-003	-1.2467736E-003	0
3.901525101439169E+003	9.1935722E-003	-1.2246884E-003	0
3.911525101186548E+003	9.3462700E-003	-1.2232244E-003	0
3.921525100933926E+003	9.4226198E-003	-1.2139959E-003	0
3.931525100681305E+003	9.3080960E-003	-1.2229063E-003	0
3.941525100428684E+003	9.3462700E-003	-1.2330897E-003	0
3.951525100176063E+003	9.4035324E-003	-1.1998027E-003	0
3.961525099923441E+003	9.2699211E-003	-1.1965567E-003	0
3.971525099670820E+003	9.3080960E-003	-1.2229700E-003	0
3.981525099418199E+003	9.4417064E-003	-1.2216334E-003	0
3.991525099165578E+003	9.3462700E-003	-1.1742807E-003	0
4.001525098912956E+003	9.3271835E-003	-1.2170508E-003	0
4.011525098660335E+003	9.4417064E-003	-1.2145686E-003	0
4.021525098407714E+003	9.2890086E-003	-1.1800723E-003	0
4.031525098155093E+003	9.4035324E-003	-1.1921652E-003	0
4.041525097902471E+003	9.2699211E-003	-1.1640972E-003	0
4.051525097649850E+003	9.3844449E-003	-1.1841458E-003	0
4.061525097397229E+003	9.4035324E-003	-1.1670885E-003	0
4.071525097144608E+003	9.3462700E-003	-1.1994208E-003	0
4.081525096891986E+003	9.2890086E-003	-1.1639699E-003	0
4.091525096639365E+003	9.3462700E-003	-1.1690615E-003	0
4.101525096459431E+003	9.3844449E-003	-1.1796905E-003	0
4.111525096338359E+003	9.3462700E-003	-1.1633971E-003	0
4.121525096217287E+003	9.3462700E-003	-1.1667067E-003	0
4.131525096096215E+003	9.2508346E-003	-1.1544866E-003	0
4.141525095975143E+003	9.3271835E-003	-1.1614878E-003	0
4.151525095854071E+003	9.4035324E-003	-1.1493949E-003	0
4.161525095732999E+003	9.3080960E-003	-1.1318922E-003	0
4.171525095611927E+003	9.3462700E-003	-1.1325286E-003	0
4.181525095490855E+003	9.4226198E-003	-1.1264823E-003	0
4.191525095369783E+003	9.3271835E-003	-1.1397207E-003	0
4.201525095248711E+003	9.4035324E-003	-1.1135621E-003	0
4.211525095127639E+003	9.3653575E-003	-1.1213269E-003	0
4.221525095006567E+003	9.3271835E-003	-1.1397842E-003	0
4.231525094885495E+003	9.3844449E-003	-1.1359019E-003	0
4.241525094764424E+003	9.3080960E-003	-1.1092341E-003	0
4.251525094643352E+003	9.4226198E-003	-1.1083431E-003	0
4.261525094522280E+003	9.4226198E-003	-1.1183356E-003	0
4.271525094401208E+003	9.4226198E-003	-1.1181447E-003	0
4.281525094280136E+003	9.3080960E-003	-1.1243183E-003	0
4.291525094159064E+003	9.4417064E-003	-1.1016603E-003	0
4.301525094037992E+003	9.4226198E-003	-1.1049699E-003	0
4.311525093916920E+003	9.3462700E-003	-1.1390205E-003	0
4.321525093795848E+003	9.2699211E-003	-1.1088522E-003	0
4.331525093674776E+003	9.3844449E-003	-1.0899494E-003	0
4.341525093553704E+003	9.3080960E-003	-1.0950411E-003	0
4.351525093432632E+003	9.3271835E-003	-1.1010238E-003	0
4.361525093311560E+003	9.4226198E-003	-1.0791932E-003	0
4.371525093190488E+003	9.3462700E-003	-1.1080885E-003	0
4.381525093069416E+003	9.3653575E-003	-1.0903312E-003	0
4.391525092948345E+003	9.4417064E-003	-1.0940864E-003	0
4.401525092827273E+003	9.3653575E-003	-1.0829483E-003	0
4.411525092706201E+003	9.3653575E-003	-1.0689461E-003	0
4.421525092585129E+003	9.4226198E-003	-1.0882309E-003	0
4.431525092464057E+003	9.3653575E-003	-1.0928771E-003	0
4.441525092342985E+003	9.3271835E-003	-1.0682460E-003	0
4.451525092221913E+003	9.3080960E-003	-1.0739105E-003	0
4.461525092100841E+003	9.3271835E-003	-1.0865125E-003	0
4.471525091979769E+003	9.4035324E-003	-1.0694553E-003	0
4.481525091858697E+003	9.2890086E-003	-1.0696463E-003	0
4.491525091737625E+003	9.2890086E-003	-1.0839667E-003	0
4.501525091616553E+003	9.4607938E-003	-1.0736560E-003	0
4.511525091495481E+003	9.3080960E-003	-1.0573624E-003	0
4.521525091374409E+003	9.3271835E-003	-1.0618177E-003	0
4.531525091253337E+003	9.4226198E-003	-1.0604175E-003	0
4.541525091132266E+003	9.2699211E-003	-1.0617541E-003	0
4.551525091011194E+003	9.3844449E-003	-1.0455879E-003	0
4.561525090890122E+003	9.4035324E-003	-1.0700917E-003	0
4.571525090769050E+003	9.2890086E-003	-1.0473065E-003	0
4.581525090647978E+003	9.3653575E-003	-1.0427239E-003	0
4.591525090526906E+003	9.1935722E-003	-1.0453970E-003	0
4.601525090405834E+003	9.3080960E-003	-1.0425965E-003	0
4.611525090284762E+003	9.3653575E-003	-1.0381413E-003	0
4.621525090163690E+003	9.3271835E-003	-1.0239483E-003	0
4.631525090042618E+003	9.3271835E-003	-1.0126828E-003	0
4.641525089921546E+003	9.2126597E-003	-1.0426602E-003	0
4.651525089800474E+003	9.4226198E-003	-1.0182201E-003	0
4.661525089679402E+003	9.2699211E-003	-1.0359137E-003	0
4.671525089558330E+003	9.3462700E-003	-1.0431694E-003	0
4.681525089437258E+003	9.4035324E-003	-1.0212751E-003	0
4.691525089316187E+003	9.3653575E-003	-9.8582415E-004	0
4.701525089195115E+003	9.4417064E-003	-1.0105825E-003	0
4.711525089074043E+003	9.3653575E-003	-1.0168198E-003	0
4.721525088952971E+003	9.4035324E-003	-1.0182837E-003	0
4.731525088831899E+003	9.3080960E-003	-1.0062546E-003	0
4.741525088710827E+003	9.2699211E-003	-1.0431058E-003	0
4.751525088589755E+003	9.3462700E-003	-1.0159924E-003	0
4.761525088468683E+003	9.2699211E-003	-1.0168835E-003	0
4.771525088347611E+003	9.4226198E-003	-1.0030722E-003	0
4.781525088226539E+003	9.2508346E-003	-1.0165652E-003	0
4.791525088105467E+003	9.3653575E-003	-1.0223570E-003	0
4.801525087984395E+003	9.4226198E-003	-1.0086095E-003	0
4.811525087863323E+003	9.3653575E-003	-1.0054272E-003	0
4.821525087742251E+003	9.3462700E-003	-9.9174317E-004	0
4.831525087621179E+003	9.3271835E-003	-9.9237973E-004	0
4.841525087500107E+003	9.3462700E-003	-1.0098189E-003	0
4.851525087379036E+003	9.3080960E-003	-9.8238722E-004	0
4.861525087257964E+003	9.3462700E-003	-1.0016084E-003	0
4.871525087136892E+003	9.4035324E-003	-9.8837004E-004	0
4.881525087015820E+003	9.4226198E-003	-9.9142501E-004	0
4.891525086894748E+003	9.2890086E-003	-1.0049179E-003	0
4.901525086773676E+003	9.4035324E-003	-9.8722428E-004	0
4.911525086652604E+003	9.3653575E-003	-9.8977028E-004	0
4.921525086531532E+003	9.4417064E-003	-9.8588772E-004	0
4.931525086410460E+003	9.2699211E-003	-9.7818649E-004	0
4.941525086289388E+003	9.2890086E-003	-9.6876692E-004	0
4.951525086168316E+003	9.3653575E-003	-9.7812293E-004	0
4.961525086047244E+003	9.3462700E-003	-9.4706350E-004	0
4.971525085926172E+003	9.3462700E-003	-9.8919740E-004	0
4.981525085805100E+003	9.3653575E-003	-9.8665152E-004	0
4.991525085684028E+003	9.4035324E-003	-9.8206906E-004	0
5.001525085562957E+003	9.3271835E-003	-9.8124158E-004	0
5.011525085441885E+003	9.4226198E-003	-9.4827282E-004	0
5.021525085320813E+003	9.3462700E-003	-9.6774858E-004	0
5.031525085199741E+003	9.4226198E-003	-9.6431171E-004	0
5.041525085078669E+003	9.3462700E-003	-9.5260073E-004	0
5.051525084957597E+003	9.3080960E-003	-9.6208404E-004	0
5.061525084836525E+003	9.3080960E-003	-9.4267196E-004	0
5.071525084715453E+003	9.4035324E-003	-9.4515417E-004	0
5.081525084594381E+003	9.3271835E-003	-9.4795460E-004	0
5.091525084473309E+003	9.3653575E-003	-9.3388872E-004	0
5.101525084352237E+003	9.4226198E-003	-9.3681656E-004	0
5.111525084231165E+003	9.3080960E-003	-9.4349938E-004	0
5.121525084110093E+003	9.3462700E-003	-9.4292650E-004	0
5.131525083989021E+003	9.3653575E-003	-9.2733325E-004	0
5.141525083867949E+003	9.4035324E-003	-9.6106576E-004	0
5.151525083746878E+003	9.3271835E-003	-9.6373889E-004	0
5.161525083625806E+003	9.2890086E-003	-9.3611644E-004	0
5.171525083504734E+003	9.4226198E-003	-9.3102473E-004	0
5.181525083383662E+003	9.2699211E-003	-9.3019730E-004	0
5.191525083262590E+003	9.3080960E-003	-9.3293405E-004	0
5.201525083141518E+003	9.3653575E-003	-9.3528902E-004	0
5.211525083020446E+003	9.3844449E-003	-9.1555866E-004	0
5.221525082899374E+003	9.3462700E-003	-9.2809700E-004	0
5.231525082778302E+003	9.2126597E-003	-9.1244007E-004	0
5.241525082657230E+003	9.3653575E-003	-8.7590714E-004	0
5.251525082536158E+003	9.3653575E-003	-9.2472375E-004	0
5.261525082415086E+003	9.4035324E-003	-9.1931387E-004	0
5.271525082294014E+003	9.3844449E-003	-9.3312497E-004	0
5.281525082172942E+003	9.3080960E-003	-8.9977443E-004	0
5.291525082051870E+003	9.3844449E-003	-8.9964713E-004	0
5.301525081930798E+003	9.3844449E-003	-9.1791357E-004	0
5.311525081809727E+003	9.3653575E-003	-9.1473135E-004	0
5.321525081688655E+003	9.3080960E-003	-9.1918645E-004	0
5.331525081567583E+003	9.3271835E-003	-9.3681656E-004	0
5.341525081446511E+003	9.4226198E-003	-9.2510559E-004	0
5.351525081325439E+003	9.3080960E-003	-9.0123829E-004	0
5.361525081204367E+003	9.2508346E-003	-9.2007761E-004	0
5.371525081083295E+003	9.4226198E-003	-8.8628143E-004	0
5.381525080962223E+003	9.2890086E-003	-8.9194591E-004	0
5.391525080841151E+003	9.3080960E-003	-8.7756186E-004	0
5.401525080720079E+003	9.4798813E-003	-8.8978192E-004	0
5.411525080599007E+003	9.2699211E-003	-8.8742713E-004	0
5.421525080477935E+003	9.3653575E-003	-8.8793621E-004	0
5.431525080356863E+003	9.4417064E-003	-9.1021234E-004	0
5.441525080235791E+003	9.3271835E-003	-8.8055327E-004	0
5.451525080114719E+003	9.4607938E-003	-9.0079277E-004	0
5.461525079993648E+003	9.4989687E-003	-8.8577223E-004	0
5.471525079872576E+003	9.3844449E-003	-8.9538278E-004	0
5.481525079751504E+003	9.3653575E-003	-9.1173989E-004	0
5.491525079630432E+003	9.4035324E-003	-8.8201714E-004	0
5.501525079509360E+003	9.4417064E-003	-8.9398259E-004	0
5.511525079388288E+003	9.2699211E-003	-9.0002903E-004	0
5.521525079267216E+003	9.3844449E-003	-8.8831806E-004	0
5.531525079146144E+003	9.3271835E-003	-8.6884241E-004	0
5.541525079025072E+003	9.4417064E-003	-8.7928027E-004	0
5.551525078904000E+003	9.3080960E-003	-9.0072909E-004	0
5.561525078782928E+003	9.3653575E-003	-8.9423719E-004	0
5.571525078661856E+003	9.3844449E-003	-8.9060934E-004	0
5.581525078540784E+003	9.3844449E-003	-8.7049714E-004	0
5.591525078419712E+003	9.2699211E-003	-8.6833321E-004	0
5.601525078298640E+003	9.2699211E-003	-8.8787253E-004	0
5.611525078177569E+003	9.3653575E-003	-8.7100640E-004	0
5.621525078056497E+003	9.2890086E-003	-8.5910450E-004	0
5.631525077935425E+003	9.3271835E-003	-8.6941518E-004	0
5.641525077814353E+003	9.2317471E-003	-8.7075174E-004	0
5.651525077693281E+003	9.3653575E-003	-8.4153819E-004	0
5.661525077572209E+003	9.2508346E-003	-8.5439469E-004	0
5.671525077451137E+003	9.3080960E-003	-8.6406886E-004	0
5.681525077330065E+003	9.3653575E-003	-8.3810126E-004	0
5.691525077208993E+003	9.4417064E-003	-8.5681322E-004	0
5.701525077087921E+003	9.3271835E-003	-8.7221555E-004	0
5.711525076966849E+003	9.3462700E-003	-8.7030622E-004	0
5.721525076845777E+003	9.4226198E-003	-8.4930292E-004	0
5.731525076724705E+003	9.3271835E-003	-8.3657372E-004	0
5.741525076603633E+003	9.2890086E-003	-8.7056082E-004	0
5.751525076482561E+003	9.3462700E-003	-8.6203223E-004	0
5.761525076361489E+003	9.4035324E-003	-8.5547665E-004	0
5.771525076240418E+003	9.4417064E-003	-8.5165794E-004	0
5.781525076119346E+003	9.4417064E-003	-8.4732997E-004	0
5.791525075998274E+003	9.3080960E-003	-8.4312930E-004	0
5.801525075877202E+003	9.3271835E-003	-8.8341732E-004	0
5.811525075756130E+003	9.4035324E-003	-8.3841942E-004	0
5.821525075635058E+003	9.3653575E-003	-8.3415525E-004	0
5.831525075513986E+003	9.3080960E-003	-8.5617672E-004	0
5.841525075392914E+003	9.3844449E-003	-8.5006672E-004	0
5.851525075271842E+003	9.2699211E-003	-8.2677219E-004	0
5.861525075150770E+003	9.2890086E-003	-8.2511746E-004	0
5.871525075029698E+003	9.3844449E-003	-8.5980463E-004	0
5.881525074908626E+003	9.2890086E-003	-8.2791783E-004	0
5.891525074787554E+003	9.2890086E-003	-8.2148961E-004	0
5.901525074666482E+003	9.3462700E-003	-8.2397176E-004	0
5.911525074545410E+003	9.2508346E-003	-8.3988340E-004	0
5.921525074424339E+003	9.3462700E-003	-8.3867408E-004	0
5.931525074303267E+003	9.2890086E-003	-8.2581752E-004	0
5.941525074182195E+003	9.4226198E-003	-8.3218218E-004	0
5.951525074061123E+003	9.3080960E-003	-8.3345507E-004	0
5.961525073940051E+003	9.4226198E-003	-8.0946041E-004	0
5.971525073818979E+003	9.3653575E-003	-8.2594482E-004	0
5.981525073697907E+003	9.3653575E-003	-8.3752838E-004	0
5.991525073576835E+003	9.4417064E-003	-8.2919077E-004	0
6.001525073455763E+003	9.2508346E-003	-8.2390808E-004	0
6.011525073334691E+003	9.3462700E-003	-7.9488539E-004	0
6.021525073213619E+003	9.3653575E-003	-8.3549175E-004	0
6.031525073092547E+003	9.4226198E-003	-7.9806778E-004	0
6.041525072971475E+003	9.3080960E-003	-8.1633421E-004	0
6.051525072850403E+003	9.2699211E-003	-8.0634176E-004	0
6.061525072729331E+003	9.3653575E-003	-8.0729643E-004	0
6.071525072608260E+003	9.3271835E-003	-8.1716169E-004	0
6.081525072487188E+003	9.2508346E-003	-8.0780569E-004	0
6.091525072366116E+003	9.3653575E-003	-8.2772685E-004	0
6.101525072245044E+003	9.3462700E-003	-7.9119398E-004	0
6.111525072123972E+003	9.2126597E-003	-8.1926194E-004	0
6.121525072002900E+003	9.4035324E-003	-8.1054238E-004	0
6.131525071881828E+003	9.3271835E-003	-7.8444747E-004	0
6.141525071760756E+003	9.3080960E-003	-8.1022416E-004	0
6.151525071639684E+003	9.3653575E-003	-8.0627820E-004	0
6.161525071518612E+003	9.3462700E-003	-8.0086821E-004	0
6.171525071397540E+003	9.4226198E-003	-8.0710551E-004	0
6.181525071276468E+003	9.3653575E-003	-7.9908612E-004	0
6.191525071155396E+003	9.2317471E-003	-8.0506888E-004	0
6.201525071034324E+003	9.3462700E-003	-7.9628563E-004	0
6.211525070913252E+003	9.3271835E-003	-7.9253060E-004	0
6.221525070792180E+003	9.3653575E-003	-7.8966655E-004	0
6.231525070671109E+003	9.3844449E-003	-8.0965139E-004	0
6.241525070550037E+003	9.3653575E-003	-7.8451115E-004	0
6.251525070428965E+003	9.4226198E-003	-7.8253809E-004	0
6.261525070307893E+003	9.4607938E-003	-7.8565680E-004	0
6.271525070186821E+003	9.3271835E-003	-7.7770092E-004	0
6.281525070065749E+003	9.3080960E-003	-7.8113785E-004	0
6.291525069944677E+003	9.3462700E-003	-7.7935582E-004	0
6.301525069823605E+003	9.4226198E-003	-7.8692974E-004	0
6.311525069702533E+003	9.2508346E-003	-7.8266539E-004	0
6.321525069581461E+003	9.3271835E-003	-7.8973011E-004	0
6.331525069460389E+003	9.3844449E-003	-7.7897398E-004	0
6.341525069339317E+003	9.3653575E-003	-7.6980889E-004	0
6.351525069218245E+003	9.4226198E-003	-7.5510662E-004	0
6.361525069097173E+003	9.3271835E-003	-7.7922846E-004	0
6.371525068976101E+003	9.3462700E-003	-7.9628563E-004	0
6.381525068855030E+003	9.4417064E-003	-7.6866330E-004	0
6.391525068733958E+003	9.3653575E-003	-7.7610987E-004	0
6.401525068612886E+003	9.3653575E-003	-7.7598257E-004	0
6.411525068491814E+003	9.3271835E-003	-7.6923607E-004	0
6.421525068370742E+003	9.1935722E-003	-7.6350791E-004	0
6.431525068249670E+003	9.2890086E-003	-7.7362766E-004	0
6.441525068128598E+003	9.4226198E-003	-7.5128779E-004	0
6.451525068007526E+003	9.2890086E-003	-7.6662656E-004	0
6.461525067886454E+003	9.4607938E-003	-7.7146373E-004	0
6.471525067765382E+003	9.4798813E-003	-7.8202900E-004	0
6.481525067644310E+003	9.4035324E-003	-7.4721448E-004	0
6.491525067523238E+003	9.3080960E-003	-7.7750999E-004	0
6.501525067402166E+003	9.2317471E-003	-7.5230619E-004	0
6.511525067281094E+003	9.4226198E-003	-7.4727810E-004	0
6.521525067160022E+003	9.2317471E-003	-7.6522637E-004	0
6.531525067038951E+003	9.2890086E-003	-7.7878305E-004	0
6.541525066917879E+003	9.1935722E-003	-7.9125760E-004	0
6.551525066796807E+003	9.4417064E-003	-7.2996633E-004	0
6.561525066675735E+003	9.3462700E-003	-7.4473233E-004	0
6.571525066554663E+003	9.3844449E-003	-7.5020583E-004	0
6.581525066433591E+003	9.3653575E-003	-7.4295019E-004	0
6.591525066312519E+003	9.4035324E-003	-7.6242595E-004	0
6.601525066191447E+003	9.4226198E-003	-7.7929214E-004	0
6.611525066070375E+003	9.3462700E-003	-7.4632344E-004	0
6.621525065949303E+003	9.4035324E-003	-7.6338061E-004	0
6.631525065828231E+003	9.3462700E-003	-7.3359418E-004	0
6.641525065707159E+003	9.3080960E-003	-7.2913896E-004	0
6.651525065586087E+003	9.4035324E-003	-7.4053166E-004	0
6.661525065465015E+003	9.3653575E-003	-7.3359418E-004	0
6.671525065343943E+003	9.3844449E-003	-7.4142264E-004	0
6.681525065222871E+003	9.4417064E-003	-7.4352301E-004	0
6.691525065101800E+003	9.2890086E-003	-7.2748412E-004	0
6.701525064980728E+003	9.4035324E-003	-7.6293509E-004	0
6.711525064859656E+003	9.2317471E-003	-7.4721448E-004	0
6.721525064738584E+003	9.4035324E-003	-7.4072264E-004	0
6.731525064617512E+003	9.3080960E-003	-7.2888436E-004	0
6.741525064496440E+003	9.2699211E-003	-7.3397602E-004	0
6.751525064375368E+003	9.3844449E-003	-7.2143780E-004	0
6.761525064254296E+003	9.4417064E-003	-7.3868589E-004	0
6.771525064133224E+003	9.3844449E-003	-7.0399867E-004	0
6.781525064012152E+003	9.3462700E-003	-7.1927381E-004	0
6.791525063891080E+003	9.3844449E-003	-7.3028455E-004	0
6.801525063770008E+003	9.2508346E-003	-7.4053166E-004	0
6.811525063648936E+003	9.3462700E-003	-7.2315620E-004	0
6.821525063527864E+003	9.3271835E-003	-7.3187577E-004	0
6.831525063406792E+003	9.3271835E-003	-6.8923278E-004	0
6.841525063285721E+003	9.3844449E-003	-7.2805694E-004	0
6.851525063164649E+003	9.3271835E-003	-7.0966320E-004	0
6.861525063043577E+003	9.4417064E-003	-7.2092866E-004	0
6.871525062922505E+003	9.3462700E-003	-7.4995129E-004	0
6.881525062801433E+003	9.4226198E-003	-6.8522309E-004	0
6.891525062680361E+003	9.4417064E-003	-7.3302136E-004	0
6.901525062559289E+003	9.4226198E-003	-7.3232129E-004	0
6.911525062438217E+003	9.3271835E-003	-7.1761903E-004	0
6.921525062317145E+003	9.3844449E-003	-7.4358663E-004	0
6.931525062196073E+003	9.3462700E-003	-7.2761148E-004	0
6.941525062075001E+003	9.2699211E-003	-7.0807210E-004	0
6.951525061953929E+003	9.4226198E-003	-7.2538387E-004	0
6.961525061832857E+003	9.3653575E-003	-7.1335468E-004	0
6.971525061711785E+003	9.3271835E-003	-7.1755529E-004	0
6.981525061590713E+003	9.2699211E-003	-7.1004505E-004	0
6.991525061469642E+003	9.4035324E-003	-7.1246363E-004	0
7.001525061348570E+003	9.3844449E-003	-7.2697503E-004	0
7.011525061227498E+003	9.3844449E-003	-7.2939356E-004	0
7.021525061106426E+003	9.4035324E-003	-7.0800842E-004	0
7.031525060985354E+003	9.4035324E-003	-6.9585198E-004	0
7.041525060864282E+003	9.3462700E-003	-7.0705370E-004	0
7.051525060743210E+003	9.4035324E-003	-6.9286057E-004	0
7.061525060622138E+003	9.3844449E-003	-7.1870099E-004	0
7.071525060501066E+003	9.3844449E-003	-7.1265455E-004	0
7.081525060379994E+003	9.4035324E-003	-7.2283798E-004	0
7.091525060258922E+003	9.4035324E-003	-6.9241511E-004	0
7.101525060137850E+003	9.4226198E-003	-6.7567610E-004	0
7.111525060016778E+003	9.2890086E-003	-7.0049817E-004	0
7.121525059895706E+003	9.4226198E-003	-6.9063297E-004	0
7.131525059774634E+003	9.3653575E-003	-7.0355315E-004	0
7.141525059653562E+003	9.3271835E-003	-6.9744315E-004	0
7.151525059532491E+003	9.2890086E-003	-7.0476247E-004	0
7.161525059411419E+003	9.2508346E-003	-7.0921768E-004	0
7.171525059290347E+003	9.3653575E-003	-7.0361677E-004	0
7.181525059169275E+003	9.4607938E-003	-6.9025106E-004	0
7.191525059048203E+003	9.2699211E-003	-6.9006014E-004	0
7.201525058927131E+003	9.2890086E-003	-6.8465027E-004	0
7.211525058806059E+003	9.2890086E-003	-6.9381535E-004	0
7.221525058684987E+003	9.3271835E-003	-6.9954345E-004	0
7.231525058563915E+003	9.4035324E-003	-6.8242260E-004	0
7.241525058442843E+003	9.3844449E-003	-6.9368799E-004	0
7.251525058321771E+003	9.4226198E-003	-7.0444425E-004	0
7.261525058200714E+003	9.3271835E-003	-6.9235143E-004	0
7.271525058079642E+003	9.4226198E-003	-6.8312272E-004	0
7.281525057958570E+003	9.2508346E-003	-6.6555635E-004	0
7.291525057837498E+003	9.4607938E-003	-6.7688536E-004	0
7.301525057716426E+003	9.2699211E-003	-6.9196959E-004	0
7.311525057595354E+003	9.2890086E-003	-6.8280450E-004	0
7.321525057474282E+003	9.3462700E-003	-6.7694910E-004	0
7.331525057353210E+003	9.4035324E-003	-6.8344100E-004	0
7.341525057232138E+003	9.3653575E-003	-6.7994039E-004	0
7.351525057111066E+003	9.3653575E-003	-6.4926298E-004	0
7.361525056989994E+003	9.3844449E-003	-6.5677322E-004	0
7.371525056868923E+003	9.2699211E-003	-6.6962972E-004	0
7.381525056747851E+003	9.2890086E-003	-6.7281205E-004	0
7.391525056626779E+003	9.3271835E-003	-6.7720370E-004	0
7.401525056505707E+003	9.3653575E-003	-6.8395009E-004	0
7.411525056384635E+003	9.4035324E-003	-6.8515941E-004	0
7.421525056263563E+003	9.3653575E-003	-6.9171499E-004	0
7.431525056142491E+003	9.3653575E-003	-6.7453051E-004	0
7.441525056021419E+003	9.3653575E-003	-6.6587469E-004	0
7.451525055900347E+003	9.3653575E-003	-6.7287567E-004	0
7.461525055779275E+003	9.3080960E-003	-6.6301058E-004	0
7.471525055658203E+003	9.3653575E-003	-6.8242260E-004	0
7.481525055537131E+003	9.3080960E-003	-7.0482615E-004	0
7.491525055416059E+003	9.3844449E-003	-6.7809469E-004	0
7.501525055294987E+003	9.3080960E-003	-6.7605800E-004	0
7.511525055173915E+003	9.3080960E-003	-6.6186488E-004	0
7.521525055052844E+003	9.4035324E-003	-6.8395009E-004	0
7.531525054931772E+003	9.4226198E-003	-6.7090266E-004	0
7.541525054810700E+003	9.3462700E-003	-6.7090266E-004	0
7.551525054689628E+003	9.3080960E-003	-6.7809469E-004	0
7.561525054568556E+003	9.3653575E-003	-6.5779156E-004	0
7.571525054447484E+003	9.3653575E-003	-6.3876138E-004	0
7.581525054326412E+003	9.2508346E-003	-6.4970850E-004	0
7.591525054205340E+003	9.3844449E-003	-6.7612162E-004	0
7.601525054084268E+003	9.3653575E-003	-6.5581850E-004	0
7.611525053963196E+003	9.3271835E-003	-6.6275592E-004	0
7.621525053842124E+003	9.2890086E-003	-6.4410764E-004	0
7.631525053721052E+003	9.3844449E-003	-6.5390917E-004	0
7.641525053599980E+003	9.3653575E-003	-6.5002672E-004	0
7.651525053478908E+003	9.4226198E-003	-6.5250898E-004	0
7.661525053357836E+003	9.3653575E-003	-6.6014647E-004	0
7.671525053236765E+003	9.3080960E-003	-6.4143445E-004	0
7.681525053115693E+003	9.3271835E-003	-6.4315298E-004	0
7.691525052994621E+003	9.5180552E-003	-6.4512593E-004	0
7.701525052873549E+003	9.3653575E-003	-6.3653372E-004	0
7.711525052752477E+003	9.3844449E-003	-6.6008279E-004	0
7.721525052631405E+003	9.2890086E-003	-6.5798248E-004	0
7.731525052510333E+003	9.3462700E-003	-6.5639138E-004	0
7.741525052389261E+003	9.3462700E-003	-6.3927047E-004	0
7.751525052268189E+003	9.3653575E-003	-6.4391672E-004	0
7.761525052147117E+003	9.4035324E-003	-6.3443341E-004	0
7.771525052026045E+003	9.3844449E-003	-6.3806120E-004	0
7.781525051904973E+003	9.3271835E-003	-6.3666102E-004	0
7.791525051783901E+003	9.4226198E-003	-6.3627918E-004	0
7.801525051662829E+003	9.2699211E-003	-6.4213458E-004	0
7.811525051541757E+003	9.2508346E-003	-6.5772794E-004	0
7.821525051420685E+003	9.3653575E-003	-6.4970850E-004	0
7.831525051299614E+003	9.4035324E-003	-6.5059954E-004	0
7.841525051178542E+003	9.3653575E-003	-6.5448193E-004	0
7.851525051057470E+003	9.3462700E-003	-6.7669444E-004	0
7.861525050936398E+003	9.3462700E-003	-6.3780666E-004	0
7.871525050815326E+003	9.4035324E-003	-6.5301807E-004	0
7.881525050694254E+003	9.3462700E-003	-6.5295451E-004	0
7.891525050573182E+003	9.2890086E-003	-6.3309685E-004	0
7.901525050452110E+003	9.3653575E-003	-6.2068587E-004	0
7.911525050331038E+003	9.3653575E-003	-6.4512593E-004	0
7.921525050209966E+003	9.3653575E-003	-6.3863402E-004	0
7.931525050088894E+003	9.3462700E-003	-6.3284225E-004	0
7.941525049967822E+003	9.3271835E-003	-6.5269991E-004	0
7.951525049846750E+003	9.3844449E-003	-6.2584120E-004	0
7.961525049725678E+003	9.3653575E-003	-6.2444096E-004	0
7.971525049604606E+003	9.2699211E-003	-6.4410764E-004	0
7.981525049483535E+003	9.4035324E-003	-6.3182390E-004	0
7.991525049362463E+003	9.4035324E-003	-6.3214212E-004	0
8.001525049241391E+003	9.3271835E-003	-6.4359844E-004	0
8.011525049120319E+003	9.3844449E-003	-6.0566532E-004	0
8.021525048999247E+003	9.2699211E-003	-6.4219825E-004	0
8.031525048878175E+003	9.3462700E-003	-6.3647010E-004	0
8.041525048757103E+003	9.3271835E-003	-6.3411519E-004	0
8.051525048636031E+003	9.2699211E-003	-6.1712164E-004	0
8.061525048514959E+003	9.3653575E-003	-6.1973114E-004	0
8.071525048393887E+003	9.4417064E-003	-6.3373329E-004	0
8.081525048272815E+003	9.3271835E-003	-6.1693072E-004	0
8.091525048151743E+003	9.2890086E-003	-6.0980232E-004	0
8.101525048030671E+003	9.3462700E-003	-6.1101164E-004	0
8.111525047909599E+003	9.4607938E-003	-6.1680342E-004	0
8.121525047788527E+003	9.3844449E-003	-6.0776563E-004	0
8.131525047667456E+003	9.3844449E-003	-5.9567287E-004	0
8.141525047546384E+003	9.4035324E-003	-6.3004182E-004	0
8.151525047425312E+003	9.4035324E-003	-6.0757471E-004	0
8.161525047304240E+003	9.3844449E-003	-5.9134490E-004	0
8.171525047183168E+003	9.3462700E-003	-6.1037514E-004	0
8.181525047062096E+003	9.2890086E-003	-6.1343017E-004	0
8.191525046941024E+003	9.3462700E-003	-6.1801268E-004	0
8.201525046819937E+003	9.3844449E-003	-6.2883255E-004	0
8.211525046698865E+003	9.3653575E-003	-6.2081311E-004	0
8.221525046577794E+003	9.2890086E-003	-6.0935679E-004	0
8.231525046456722E+003	9.3653575E-003	-6.0496526E-004	0
8.241525046335650E+003	9.4226198E-003	-6.1737624E-004	0
8.251525046214578E+003	9.4035324E-003	-6.0725649E-004	0
8.261525046093506E+003	9.3271835E-003	-6.0980232E-004	0
8.271525045972434E+003	9.3653575E-003	-6.1381207E-004	0
8.281525045851362E+003	9.3653575E-003	-6.0751109E-004	0
8.291525045730290E+003	9.2890086E-003	-6.0566532E-004	0
8.301525045609218E+003	9.4226198E-003	-6.0541078E-004	0
8.311525045488146E+003	9.4417064E-003	-5.9707306E-004	0
8.321525045367074E+003	9.3271835E-003	-6.0235575E-004	0
8.331525045246002E+003	9.3844449E-003	-6.1107526E-004	0
8.341525045124930E+003	9.3653575E-003	-6.0967501E-004	0
8.351525045003858E+003	9.3462700E-003	-6.1947654E-004	0
8.361525044882786E+003	9.3271835E-003	-6.0267397E-004	0
8.371525044761715E+003	9.3653575E-003	-6.0235575E-004	0
8.381525044640643E+003	9.3271835E-003	-5.9077214E-004	0
8.391525044519571E+003	9.2890086E-003	-6.0649274E-004	0
8.401525044398499E+003	9.2317471E-003	-6.0897495E-004	0
8.411525044277427E+003	9.4226198E-003	-5.9866428E-004	0
8.421525044156355E+003	9.4417064E-003	-6.0305587E-004	0
8.431525044035283E+003	9.3080960E-003	-5.9134490E-004	0
8.441525043914211E+003	9.3080960E-003	-5.8338919E-004	0
8.451525043793139E+003	9.4035324E-003	-6.0789293E-004	0
8.461525043672067E+003	9.3271835E-003	-5.9643661E-004	0
8.471525043550995E+003	9.2890086E-003	-6.1260274E-004	0
8.481525043429923E+003	9.4417064E-003	-5.9293612E-004	0
8.491525043308851E+003	9.4226198E-003	-5.9433631E-004	0
8.501525043187779E+003	9.3653575E-003	-5.9611839E-004	0
8.511525043066707E+003	9.4226198E-003	-6.0299219E-004	0
8.521525042945636E+003	9.4035324E-003	-6.0426514E-004	0
8.531525042824564E+003	9.3844449E-003	-5.8313453E-004	0
8.541525042703492E+003	9.3844449E-003	-5.8287999E-004	0
8.551525042582420E+003	9.3080960E-003	-6.0076459E-004	0
8.561525042461348E+003	9.3844449E-003	-5.7963398E-004	0
8.571525042340276E+003	9.3653575E-003	-5.8841723E-004	0
8.581525042219204E+003	9.2508346E-003	-5.8797171E-004	0
8.591525042098132E+003	9.2890086E-003	-5.9408171E-004	0
8.601525041977060E+003	9.3844449E-003	-5.8504392E-004	0
8.611525041855988E+003	9.4035324E-003	-5.9338164E-004	0
8.621525041734916E+003	9.3844449E-003	-5.7040533E-004	0
8.631525041613844E+003	9.3080960E-003	-5.8536220E-004	0
8.641525041492772E+003	9.3271835E-003	-5.8243447E-004	0
8.651525041371700E+003	9.4226198E-003	-5.8911729E-004	0
8.661525041250628E+003	9.3844449E-003	-6.0375594E-004	0
8.671525041129556E+003	9.4417064E-003	-5.5984000E-004	0
8.681525041008485E+003	9.2317471E-003	-5.5283896E-004	0
8.691525040887413E+003	9.2890086E-003	-5.6900509E-004	0
8.701525040766341E+003	9.3653575E-003	-5.9796410E-004	0
8.711525040645269E+003	9.4226198E-003	-5.8268901E-004	0
8.721525040524197E+003	9.3844449E-003	-5.5232982E-004	0
8.731525040403125E+003	9.3080960E-003	-5.7708815E-004	0
8.741525040282053E+003	9.3653575E-003	-5.8071606E-004	0
8.751525040160981E+003	9.4226198E-003	-5.8669876E-004	0
8.761525040039909E+003	9.3462700E-003	-5.9624569E-004	0
8.771525039918837E+003	9.4417064E-003	-5.8192527E-004	0
8.781525039797765E+003	9.4035324E-003	-5.8224355E-004	0
8.791525039676693E+003	9.4035324E-003	-5.7409680E-004	0
8.801525039555621E+003	9.4989687E-003	-5.6435895E-004	0
8.811525039434549E+003	9.4035324E-003	-5.8211625E-004	0
8.821525039313477E+003	9.3271835E-003	-6.1215722E-004	0
8.831525039192406E+003	9.3462700E-003	-5.7581527E-004	0
8.841525039071334E+003	9.4035324E-003	-5.6862325E-004	0
8.851525038950262E+003	9.3653575E-003	-5.9891882E-004	0
8.861525038829190E+003	9.4417064E-003	-5.6906877E-004	0
8.871525038708118E+003	9.3462700E-003	-5.7651539E-004	0
8.881525038587046E+003	9.3271835E-003	-5.5786705E-004	0
8.891525038465974E+003	9.3462700E-003	-5.9350894E-004	0
8.901525038344902E+003	9.3844449E-003	-5.6149485E-004	0
8.911525038223830E+003	9.2699211E-003	-5.8020686E-004	0
8.921525038102758E+003	9.3653575E-003	-5.6321331E-004	0
8.931525037981686E+003	9.4226198E-003	-5.6041288E-004	0
8.941525037860614E+003	9.3080960E-003	-5.7390588E-004	0
8.951525037739542E+003	9.4035324E-003	-5.4157362E-004	0
8.961525037618470E+003	9.2699211E-003	-5.6060380E-004	0
8.971525037497398E+003	9.2699211E-003	-5.7237834E-004	0
8.981525037376327E+003	9.4226198E-003	-5.9217232E-004	0
8.991525037255255E+003	9.3462700E-003	-5.6773220E-004	0
9.001525037134183E+003	9.3271835E-003	-5.8154343E-004	0
9.011525037013111E+003	9.3080960E-003	-5.7810656E-004	0
9.021525036892039E+003	9.2508346E-003	-5.6174945E-004	0
9.031525036770967E+003	9.3653575E-003	-5.7396950E-004	0
9.041525036649895E+003	9.2699211E-003	-5.8943551E-004	0
9.051525036528823E+003	9.3653575E-003	-5.6588644E-004	0
9.061525036407751E+003	9.4226198E-003	-5.7791558E-004	0
9.071525036286679E+003	9.3462700E-003	-5.8116153E-004	0
9.081525036165607E+003	9.4035324E-003	-5.5150239E-004	0
9.091525036044535E+003	9.2890086E-003	-5.8402563E-004	0
9.101525035923463E+003	9.2890086E-003	-5.5984000E-004	0
9.111525035802391E+003	9.3271835E-003	-5.8421656E-004	0
9.121525035681319E+003	9.3271835E-003	-5.4583792E-004	0
9.131525035560247E+003	9.2890086E-003	-5.7536975E-004	0
9.141525035439176E+003	9.3080960E-003	-5.7606981E-004	0
9.151525035318104E+003	9.2890086E-003	-5.5143872E-004	0
9.161525035197032E+003	9.3271835E-003	-5.6633196E-004	0
9.171525035075960E+003	9.4417064E-003	-5.6588644E-004	0
9.181525034954888E+003	9.3271835E-003	-5.5302994E-004	0
9.191525034833816E+003	9.3653575E-003	-5.7645171E-004	0
9.201525034712744E+003	9.3271835E-003	-5.3680013E-004	0
9.211525034591672E+003	9.4035324E-003	-5.4634706E-004	0
9.221525034470600E+003	9.2890086E-003	-5.5239344E-004	0
9.231525034349528E+003	9.3271835E-003	-5.7339668E-004	0
9.241525034228456E+003	9.3462700E-003	-5.5818527E-004	0
9.251525034107384E+003	9.2508346E-003	-5.4641068E-004	0
9.261525033986312E+003	9.4035324E-003	-5.6703208E-004	0
9.271525033865240E+003	9.3462700E-003	-5.8727158E-004	0
9.281525033744168E+003	9.3271835E-003	-5.6041288E-004	0
9.291525033623097E+003	9.3653575E-003	-5.6945067E-004	0
9.301525033502025E+003	9.2508346E-003	-5.7123275E-004	0
9.311525033380953E+003	9.4226198E-003	-5.8612594E-004	0
9.321525033259881E+003	9.3271835E-003	-5.6868687E-004	0
9.331525033138809E+003	9.3653575E-003	-5.5392092E-004	0
9.341525033017737E+003	9.4607938E-003	-5.8198889E-004	0
9.351525032896665E+003	9.3271835E-003	-5.5328448E-004	0
9.361525032775593E+003	9.2126597E-003	-5.7186920E-004	0
9.371525032654521E+003	9.2890086E-003	-5.5360276E-004	0
9.381525032533449E+003	9.3462700E-003	-5.6009466E-004	0
9.391525032412377E+003	9.2890086E-003	-5.6257687E-004	0
9.401525032291305E+003	9.3844449E-003	-5.5583031E-004	0
9.411525032170233E+003	9.3653575E-003	-5.5907626E-004	0
9.421525032049161E+003	9.3080960E-003	-5.6085840E-004	0
9.431525031928089E+003	9.3844449E-003	-5.6168583E-004	0
9.441525031807018E+003	9.3653575E-003	-5.5945816E-004	0
9.451525031685946E+003	9.2317471E-003	-5.3775485E-004	0
9.461525031564874E+003	9.3080960E-003	-5.4481957E-004	0
9.471525031443802E+003	9.4035324E-003	-5.5621221E-004	0
9.481525031322730E+003	9.2890086E-003	-5.5576669E-004	0
9.491525031201658E+003	9.4035324E-003	-5.4647436E-004	0
9.501525031080586E+003	9.3653575E-003	-5.5863080E-004	0
9.511525030959514E+003	9.3653575E-003	-5.5054773E-004	0
9.521525030838442E+003	9.3462700E-003	-5.5831257E-004	0
9.531525030717370E+003	9.3080960E-003	-5.6136755E-004	0
9.541525030596298E+003	9.2699211E-003	-5.3094467E-004	0
9.551525030475226E+003	9.3844449E-003	-5.4558332E-004	0
9.561525030354154E+003	9.3080960E-003	-5.4768362E-004	0
9.571525030233082E+003	9.4226198E-003	-5.4621976E-004	0
9.581525030112010E+003	9.2890086E-003	-5.4201909E-004	0
9.591525029990938E+003	9.4035324E-003	-5.5462110E-004	0
9.601525029869867E+003	9.3844449E-003	-5.2948081E-004	0
9.611525029748795E+003	9.2699211E-003	-5.5322086E-004	0
9.621525029627723E+003	9.4035324E-003	-5.3578179E-004	0
9.631525029506651E+003	9.3080960E-003	-5.4246461E-004	0
9.641525029385579E+003	9.4035324E-003	-5.6531362E-004	0
9.651525029264507E+003	9.3653575E-003	-5.3380878E-004	0
9.661525029143435E+003	9.3080960E-003	-5.5182062E-004	0
9.671525029022363E+003	9.2890086E-003	-5.4023706E-004	0
9.681525028901291E+003	9.3653575E-003	-5.3170841E-004	0
9.691525028780219E+003	9.2890086E-003	-5.3355418E-004	0
9.701525028659147E+003	9.3844449E-003	-5.4666528E-004	0
9.711525028538075E+003	9.3271835E-003	-5.5271172E-004	0
9.721525028417003E+003	9.3080960E-003	-5.5474835E-004	0
9.731525028295931E+003	9.3844449E-003	-5.1070517E-004	0
9.741525028174859E+003	9.3844449E-003	-5.4494682E-004	0
9.751525028053788E+003	9.3653575E-003	-5.2738044E-004	0
9.761525027932716E+003	9.3653575E-003	-5.5341178E-004	0
9.771525027811644E+003	9.4226198E-003	-5.3877314E-004	0
9.781525027690572E+003	9.4035324E-003	-5.3635461E-004	0
9.791525027569500E+003	9.4417064E-003	-5.2674400E-004	0
9.801525027448428E+003	9.2699211E-003	-5.1866099E-004	0
9.811525027327356E+003	9.3653575E-003	-5.3610001E-004	0
9.821525027206284E+003	9.3080960E-003	-5.7015073E-004	0
9.831525027085212E+003	9.4035324E-003	-5.4227369E-004	0
9.841525026964140E+003	9.3271835E-003	-5.4602884E-004	0
9.851525026843068E+003	9.3653575E-003	-5.2992639E-004	0
9.861525026721996E+003	9.4417064E-003	-5.2795332E-004	0
9.871525026600924E+003	9.3844449E-003	-5.2120682E-004	0
9.881525026479852E+003	9.4035324E-003	-5.0376769E-004	0
9.891525026358780E+003	9.3462700E-003	-5.4972025E-004	0
9.901525026237709E+003	9.3271835E-003	-5.2190694E-004	0
9.911525026116637E+003	9.3844449E-003	-5.2496197E-004	0
9.921525025995565E+003	9.3844449E-003	-5.4278289E-004	0
9.931525025874493E+003	9.2699211E-003	-5.2871706E-004	0
9.941525025753421E+003	9.4035324E-003	-4.9937610E-004	0
9.951525025632349E+003	9.2890086E-003	-5.0701370E-004	0
9.961525025511277E+003	9.3271835E-003	-4.9803959E-004	0
9.971525025390205E+003	9.4035324E-003	-5.1891553E-004	0
9.981525025269133E+003	9.2508346E-003	-4.9288425E-004	0
9.991525025148061E+003	9.2699211E-003	-5.3476344E-004	0
1.000152502502699E+004	9.2890086E-003	-5.1388744E-004	0
1.001152502490592E+004	9.3462700E-003	-5.2528013E-004	0
1.002152502478485E+004	9.3080960E-003	-5.1165989E-004	0
1.003152502466377E+004	9.3653575E-003	-5.0714094E-004	0
1.004152502454270E+004	9.4035324E-003	-5.4265553E-004	0
1.005152502442163E+004	9.3653575E-003	-5.2107952E-004	0
1.006152502430056E+004	9.3462700E-003	-5.2279799E-004	0
1.007152502417949E+004	9.3271835E-003	-5.4450135E-004	0
1.008152502405841E+004	9.3844449E-003	-5.2152504E-004	0
1.009152502393734E+004	9.2890086E-003	-5.2337075E-004	0
1.010152502381627E+004	9.2890086E-003	-5.1293278E-004	0
1.011152502369520E+004	9.3080960E-003	-5.0854118E-004	0
1.012152502357413E+004	9.3462700E-003	-5.2591664E-004	0
1.013152502345305E+004	9.1744857E-003	-5.4131902E-004	0
1.014152502333198E+004	9.3271835E-003	-5.1191443E-004	0
1.015152502321091E+004	9.2890086E-003	-5.1528774E-004	0
1.016152502308984E+004	9.3462700E-003	-5.1235995E-004	0
1.017152502296877E+004	9.3462700E-003	-5.2782602E-004	0
1.018152502284769E+004	9.3271835E-003	-5.1006873E-004	0
1.019152502272662E+004	9.2890086E-003	-5.2152504E-004	0
1.020152502260555E+004	9.2890086E-003	-5.2337075E-004	0
1.021152502248448E+004	9.3462700E-003	-5.2343443E-004	0
1.022152502236341E+004	9.3080960E-003	-5.2827154E-004	0
1.023152502224233E+004	9.2699211E-003	-5.1745167E-004	0
1.024152502212126E+004	9.3271835E-003	-5.2967173E-004	0
1.025152502200019E+004	9.3462700E-003	-5.0905038E-004	0
1.026152502187912E+004	9.3653575E-003	-5.2044308E-004	0
1.027152502175805E+004	9.3080960E-003	-4.9135671E-004	0
1.028152502163698E+004	9.3080960E-003	-5.1605148E-004	0
1.029152502151590E+004	9.3844449E-003	-5.0631358E-004	0
1.030152502139483E+004	9.4035324E-003	-5.0026720E-004	0
1.031152502127376E+004	9.4798813E-003	-5.2458007E-004	0
1.032152502115269E+004	9.3080960E-003	-4.9867603E-004	0
1.033152502103162E+004	9.3462700E-003	-5.1675161E-004	0
1.034152502091054E+004	9.2890086E-003	-5.0192204E-004	0
1.035152502078947E+004	9.3080960E-003	-5.2954449E-004	0
1.036152502066840E+004	9.2508346E-003	-5.2044308E-004	0
1.037152502054733E+004	9.3844449E-003	-5.2267069E-004	0
1.038152502042626E+004	9.3844449E-003	-5.1229628E-004	0
1.039152502030518E+004	9.3462700E-003	-5.1802449E-004	0
1.040152502018411E+004	9.3080960E-003	-5.1522406E-004	0
1.041152502006304E+004	9.3844449E-003	-5.2203418E-004	0
1.042152501994197E+004	9.3271835E-003	-5.2368903E-004	0
1.043152501982090E+004	9.3271835E-003	-5.0287670E-004	0
1.044152501969982E+004	9.2699211E-003	-4.9899425E-004	0
1.045152501957875E+004	9.2699211E-003	-4.9829419E-004	0
1.046152501945768E+004	9.3653575E-003	-5.1668793E-004	0
1.047152501933661E+004	9.4226198E-003	-4.9523916E-004	0
1.048152501921554E+004	9.3844449E-003	-5.1127799E-004	0
1.049152501909446E+004	9.3653575E-003	-5.0930493E-004	0
1.050152501897339E+004	9.3462700E-003	-5.0039450E-004	0
1.051152501885232E+004	9.3271835E-003	-4.7996404E-004	0
1.052152501873125E+004	9.2699211E-003	-5.1687885E-004	0
1.053152501861018E+004	9.3271835E-003	-4.9880333E-004	0
1.054152501848910E+004	9.3080960E-003	-5.0236750E-004	0
1.055152501836803E+004	9.2699211E-003	-5.2197056E-004	0
1.056152501824696E+004	9.2508346E-003	-5.1420572E-004	0
1.057152501812589E+004	9.3653575E-003	-4.8594677E-004	0
1.058152501800482E+004	9.3080960E-003	-4.7652714E-004	0
1.059152501788375E+004	9.3653575E-003	-5.2330713E-004	0
1.060152501776267E+004	9.3844449E-003	-4.9250229E-004	0
1.061152501764160E+004	9.4417064E-003	-4.9842143E-004	0
1.062152501752053E+004	9.3271835E-003	-5.0504063E-004	0
1.063152501739946E+004	9.3080960E-003	-4.9676665E-004	0
1.064152501727839E+004	9.4417064E-003	-5.0822296E-004	0
1.065152501715731E+004	9.3653575E-003	-4.9740315E-004	0
1.066152501703624E+004	9.3080960E-003	-4.8912910E-004	0
1.067152501691517E+004	9.3271835E-003	-4.9313885E-004	0
1.068152501679410E+004	9.2317471E-003	-4.9332978E-004	0
1.069152501667303E+004	9.2508346E-003	-4.8537398E-004	0
1.070152501655195E+004	9.3080960E-003	-4.8282815E-004	0
1.071152501643088E+004	9.3462700E-003	-4.8683785E-004	0
1.072152501630981E+004	9.2317471E-003	-5.0720462E-004	0
1.073152501618874E+004	9.3653575E-003	-4.9854873E-004	0
1.074152501606767E+004	9.5180552E-003	-4.8919272E-004	0
1.075152501594659E+004	9.3080960E-003	-4.7633622E-004	0
1.076152501582552E+004	9.2890086E-003	-5.1904283E-004	0
1.077152501570445E+004	9.3462700E-003	-4.8180975E-004	0
1.078152501558338E+004	9.2126597E-003	-5.1070517E-004	0
1.079152501546231E+004	9.4035324E-003	-4.8403739E-004	0
1.080152501534123E+004	9.3844449E-003	-4.8753791E-004	0
1.081152501522016E+004	9.2890086E-003	-4.8982922E-004	0
1.082152501509909E+004	9.3271835E-003	-4.9110211E-004	0
1.083152501497802E+004	9.3653575E-003	-4.8295539E-004	0
1.084152501485695E+004	9.3653575E-003	-5.0472241E-004	0
1.085152501473587E+004	9.4035324E-003	-4.9142039E-004	0
1.086152501461480E+004	9.3844449E-003	-4.9727579E-004	0
1.087152501449373E+004	9.2890086E-003	-4.8620134E-004	0
1.088152501437266E+004	9.3080960E-003	-5.0134916E-004	0
1.089152501425159E+004	9.3653575E-003	-4.8505570E-004	0
1.090152501413052E+004	9.3653575E-003	-4.8441926E-004	0
1.091152501400944E+004	9.3844449E-003	-4.6901687E-004	0
1.092152501388837E+004	9.3844449E-003	-4.8677417E-004	0
1.093152501376730E+004	9.3653575E-003	-4.7939125E-004	0
1.094152501364623E+004	9.3844449E-003	-4.6373426E-004	0
1.095152501352516E+004	9.3462700E-003	-4.8849260E-004	0
1.096152501340408E+004	9.3653575E-003	-4.9059291E-004	0
1.097152501328301E+004	9.3080960E-003	-4.9052935E-004	0
1.098152501316194E+004	9.4035324E-003	-4.9994898E-004	0
1.099152501304087E+004	9.4035324E-003	-4.8753791E-004	0
1.100152501291980E+004	9.3653575E-003	-4.8461021E-004	0
1.101152501279872E+004	9.4035324E-003	-4.8531033E-004	0
1.102152501267765E+004	9.4417064E-003	-4.8588312E-004	0
1.103152501255658E+004	9.3080960E-003	-4.7270840E-004	0
1.104152501243551E+004	9.2126597E-003	-4.7703629E-004	0
1.105152501231444E+004	9.3653575E-003	-4.7773641E-004	0
1.106152501219336E+004	9.3462700E-003	-4.7722721E-004	0
1.107152501207229E+004	9.2699211E-003	-4.7143543E-004	0
1.108152501195122E+004	9.3653575E-003	-4.9110211E-004	0
1.109152501183015E+004	9.4607938E-003	-4.7875472E-004	0
1.110152501170908E+004	9.4607938E-003	-4.8511938E-004	0
1.111152501158800E+004	9.4989687E-003	-4.3649366E-004	0
1.112152501146693E+004	9.2317471E-003	-4.8607407E-004	0
1.113152501134586E+004	9.3844449E-003	-4.7996404E-004	0
1.114152501122479E+004	9.3653575E-003	-4.7850018E-004	0
1.115152501110372E+004	9.2126597E-003	-4.8836536E-004	0
1.116152501098264E+004	9.3653575E-003	-4.8040957E-004	0
1.117152501086157E+004	9.3462700E-003	-4.8912910E-004	0
1.118152501074050E+004	9.2890086E-003	-5.0523155E-004	0
1.119152501061943E+004	9.3462700E-003	-4.5565117E-004	0
1.120152501049836E+004	9.2317471E-003	-4.9072027E-004	0
1.121152501037729E+004	9.3462700E-003	-4.6666199E-004	0
1.122152501025621E+004	9.2890086E-003	-4.7289932E-004	0
1.123152501013514E+004	9.3653575E-003	-4.7538150E-004	0
1.124152501001407E+004	9.3271835E-003	-4.4304921E-004	0
1.125152500989300E+004	9.3462700E-003	-4.6424341E-004	0
1.126152500977193E+004	9.3462700E-003	-4.9613020E-004	0
1.127152500965085E+004	9.3462700E-003	-4.8072779E-004	0
1.128152500952978E+004	9.3271835E-003	-4.9320247E-004	0
1.129152500940871E+004	9.2508346E-003	-4.9065665E-004	0
1.130152500928764E+004	9.2890086E-003	-4.6869865E-004	0
1.131152500916657E+004	9.3080960E-003	-4.8581944E-004	0
1.132152500904549E+004	9.3271835E-003	-4.7213555E-004	0
1.133152500892442E+004	9.3462700E-003	-4.7850018E-004	0
1.134152500880335E+004	9.3462700E-003	-4.7264472E-004	0
1.135152500868228E+004	9.3271835E-003	-5.0147646E-004	0
1.136152500856121E+004	9.3080960E-003	-4.6857138E-004	0
1.137152500844013E+004	9.3462700E-003	-4.8244625E-004	0
1.138152500831906E+004	9.3844449E-003	-4.7735454E-004	0
1.139152500819799E+004	9.4226198E-003	-4.8021864E-004	0
1.140152500807692E+004	9.3462700E-003	-4.7309027E-004	0
1.141152500795585E+004	9.2890086E-003	-4.7741819E-004	0
1.142152500783477E+004	9.2317471E-003	-4.6048829E-004	0
1.143152500771370E+004	9.3653575E-003	-4.5826068E-004	0
1.144152500759263E+004	9.2890086E-003	-4.8607407E-004	0
1.145152500747156E+004	9.3653575E-003	-4.8690150E-004	0
1.146152500735049E+004	9.3462700E-003	-4.6844405E-004	0
1.147152500722941E+004	9.2890086E-003	-4.4833188E-004	0
1.148152500710834E+004	9.2508346E-003	-4.6952604E-004	0
1.149152500698727E+004	9.2508346E-003	-4.6939874E-004	0
1.150152500686620E+004	9.2699211E-003	-4.7130813E-004	0
1.151152500674513E+004	9.3271835E-003	-4.8231895E-004	0
1.152152500662406E+004	9.2508346E-003	-4.6513448E-004	0
1.153152500650298E+004	9.3653575E-003	-4.5896083E-004	0
1.154152500638191E+004	9.4226198E-003	-4.7143543E-004	0
1.155152500626084E+004	9.3844449E-003	-4.7429951E-004	0
1.156152500613977E+004	9.3271835E-003	-4.5616034E-004	0
1.157152500601870E+004	9.3080960E-003	-4.5488740E-004	0
1.158152500589762E+004	9.4226198E-003	-4.7569975E-004	0
1.159152500577655E+004	9.3271835E-003	-4.8467383E-004	0
1.160152500565548E+004	9.2699211E-003	-4.8569220E-004	0
1.161152500553441E+004	9.3271835E-003	-4.7156276E-004	0
1.162152500541334E+004	9.2890086E-003	-4.6055194E-004	0
1.163152500529226E+004	9.1935722E-003	-4.7359939E-004	0
1.164152500517119E+004	9.3462700E-003	-4.5902442E-004	0
1.165152500505012E+004	9.3462700E-003	-4.5584212E-004	0
1.166152500492905E+004	9.3844449E-003	-4.6742574E-004	0
1.167152500480798E+004	9.3462700E-003	-4.5539660E-004	0
1.168152500468690E+004	9.2699211E-003	-4.6074289E-004	0
1.169152500456583E+004	9.3462700E-003	-4.4654979E-004	0
1.170152500444476E+004	9.3653575E-003	-4.3821213E-004	0
1.171152500432369E+004	9.4226198E-003	-4.6831678E-004	0
1.172152500420262E+004	9.3462700E-003	-4.4642249E-004	0
1.173152500408154E+004	9.4226198E-003	-4.4922295E-004	0
1.174152500396047E+004	9.4417064E-003	-4.4661341E-004	0
1.175152500383940E+004	9.4035324E-003	-4.7633622E-004	0
1.176152500371833E+004	9.3653575E-003	-4.6417976E-004	0
1.177152500359726E+004	9.4035324E-003	-4.6876230E-004	0
1.178152500347618E+004	9.3080960E-003	-4.5100498E-004	0
1.179152500335511E+004	9.2508346E-003	-4.4845915E-004	0
1.180152500323404E+004	9.4035324E-003	-4.5552393E-004	0
1.181152500311297E+004	9.4417064E-003	-4.6335239E-004	0
1.182152500299190E+004	9.3844449E-003	-4.4266734E-004	0
1.183152500287083E+004	9.4035324E-003	-4.6494353E-004	0
1.184152500274975E+004	9.3271835E-003	-4.5717868E-004	0
1.185152500262868E+004	9.3844449E-003	-4.5176878E-004	0
1.186152500250761E+004	9.4035324E-003	-4.5806976E-004	0
1.187152500238654E+004	9.2317471E-003	-4.7652714E-004	0
1.188152500226547E+004	9.3462700E-003	-4.1994566E-004	0
1.189152500214439E+004	9.3271835E-003	-4.5367813E-004	0
1.190152500202332E+004	9.3271835E-003	-4.5908807E-004	0
1.191152500190225E+004	9.3462700E-003	-4.4088525E-004	0
1.192152500178118E+004	9.3462700E-003	-4.5253249E-004	0
1.193152500166011E+004	9.3844449E-003	-4.3229302E-004	0
1.194152500153903E+004	9.3080960E-003	-4.6048829E-004	0
1.195152500141796E+004	9.4226198E-003	-4.4922295E-004	0
1.196152500129689E+004	9.3653575E-003	-4.6277957E-004	0
1.197152500117582E+004	9.3271835E-003	-4.6672559E-004	0
1.198152500105475E+004	9.3844449E-003	-4.4343111E-004	0
1.199152500093367E+004	9.4035324E-003	-4.4985939E-004	0
1.200152500081260E+004	9.2699211E-003	-4.4425853E-004	0
1.201152500069153E+004	9.3653575E-003	-4.3222940E-004	0
1.202152500057046E+004	9.3080960E-003	-4.4018516E-004	0
1.203152500044939E+004	9.2508346E-003	-4.4502228E-004	0
1.204152500032831E+004	9.3462700E-003	-4.5749691E-004	0
1.205152500020724E+004	9.3653575E-003	-4.6112473E-004	0
1.206152500008617E+004	9.3844449E-003	-4.4877740E-004	0
1.207152499996510E+004	9.3653575E-003	-4.3458430E-004	0
1.208152499984403E+004	9.3462700E-003	-4.5355086E-004	0
1.209152499972295E+004	9.2890086E-003	-4.4349476E-004	0
1.210152499960188E+004	9.3844449E-003	-4.4705893E-004	0
1.211152499948081E+004	9.3844449E-003	-4.4724988E-004	0
1.212152499935974E+004	9.2890086E-003	-4.3884857E-004	0
1.213152499923867E+004	9.3653575E-003	-4.4820455E-004	0
1.214152499911760E+004	9.2317471E-003	-4.4553142E-004	0
1.214534779907131E+004	9.3462700E-003	-3.9162306E-004	0
1.214534799907132E+004	9.2699211E-003	-4.0422505E-004	0