time/s	Ewe/V	I/mA	error	
6.005299848293362E+001	2.7108419E+000	-2.5031064E-002	0
6.017319847989711E+001	9.3513196E-003	-1.0600671E+001	0
6.017379847988195E+001	9.4276723E-003	-1.0532578E+001	0
6.017419847987185E+001	9.4467606E-003	-1.0476577E+001	0
6.017479847985669E+001	9.4085848E-003	-1.0411030E+001	0
6.017519847984659E+001	9.3704080E-003	-1.0356936E+001	0
6.017559847983648E+001	9.4467606E-003	-1.0304754E+001	0
6.017619847982132E+001	9.3131429E-003	-1.0232206E+001	0
6.017679847980617E+001	9.3894964E-003	-1.0155840E+001	0
6.017719847979606E+001	9.3894964E-003	-1.0104294E+001	0
6.017779847978090E+001	9.2749661E-003	-1.0040019E+001	0
6.017819847977080E+001	9.4085848E-003	-9.9852896E+000	0
6.017879847975564E+001	9.4658490E-003	-9.9241972E+000	0
6.017939847974048E+001	9.4467606E-003	-9.8541956E+000	0
6.017999847972533E+001	9.4085848E-003	-9.7822847E+000	0
6.018059847971017E+001	9.4658490E-003	-9.7110100E+000	0
6.018119847969501E+001	9.4276723E-003	-9.6365528E+000	0
6.018179847967986E+001	9.3322312E-003	-9.5722790E+000	0
6.018239847966470E+001	9.4276723E-003	-9.5137310E+000	0
6.018299847964954E+001	9.4276723E-003	-9.4513664E+000	0
6.018339847963944E+001	9.4276723E-003	-9.3985462E+000	0
6.018399847962428E+001	9.3704080E-003	-9.3419085E+000	0
6.018459847960912E+001	9.3894964E-003	-9.2776337E+000	0
6.018519847959396E+001	9.3513196E-003	-9.2114506E+000	0
6.018579847957881E+001	9.4276723E-003	-9.1471758E+000	0
6.018639847956365E+001	9.4085848E-003	-9.0867195E+000	0
6.018699847954849E+001	9.3513196E-003	-9.0224447E+000	0
6.018759847953334E+001	9.3894964E-003	-8.9594431E+000	0
6.018819847951818E+001	9.3894964E-003	-8.9034414E+000	0
6.018879847950302E+001	9.4085848E-003	-8.8455305E+000	0
6.018939847948786E+001	9.3322312E-003	-8.7818928E+000	0
6.018999847947271E+001	9.4849374E-003	-8.7188911E+000	0
6.019059847945755E+001	9.5040258E-003	-8.6654348E+000	0
6.019119847944239E+001	9.4276723E-003	-8.6075239E+000	0
6.019179847942723E+001	9.4467606E-003	-8.5477037E+000	0
6.019239847941208E+001	9.4658490E-003	-8.4923382E+000	0
6.019299847939692E+001	9.4085848E-003	-8.4299736E+000	0
6.019359847938176E+001	9.4849374E-003	-8.3790636E+000	0
6.019419847936661E+001	9.4849374E-003	-8.3192434E+000	0
6.019499847934640E+001	9.4085848E-003	-8.2517862E+000	0
6.019559847933124E+001	9.5231142E-003	-8.1926031E+000	0
6.019639847931103E+001	9.2558777E-003	-8.1289654E+000	0
6.019699847929587E+001	9.4849374E-003	-8.0716906E+000	0
6.019759847928071E+001	9.3513196E-003	-8.0207796E+000	0
6.019819847926556E+001	9.4085848E-003	-7.9641418E+000	0
6.019899847924535E+001	9.5422026E-003	-7.8985944E+000	0
6.019979847922514E+001	9.5422026E-003	-7.8311381E+000	0
6.020059847920493E+001	9.4467606E-003	-7.7617726E+000	0
6.020139847918472E+001	9.4658490E-003	-7.6981344E+000	0
6.020199847916956E+001	9.4276723E-003	-7.6427698E+000	0
6.020279847914935E+001	9.3894964E-003	-7.5874038E+000	0
6.020359847912914E+001	9.4085848E-003	-7.5314026E+000	0
6.020419847911398E+001	9.3894964E-003	-7.4722195E+000	0
6.020499847909377E+001	9.4276723E-003	-7.4143085E+000	0
6.020559847907862E+001	9.4276723E-003	-7.3621249E+000	0
6.020639847905841E+001	9.4467606E-003	-7.3023052E+000	0
6.020719847903820E+001	9.3704080E-003	-7.2412124E+000	0
6.020799847901799E+001	9.3131429E-003	-7.1883926E+000	0
6.020879847899778E+001	9.4467606E-003	-7.1304827E+000	0
6.020939847898262E+001	9.3513196E-003	-7.0802083E+000	0
6.021039847895736E+001	9.3322312E-003	-7.0159335E+000	0
6.021119847893715E+001	9.3322312E-003	-6.9599323E+000	0
6.021199847891694E+001	9.5422026E-003	-6.9001117E+000	0
6.021299847889168E+001	9.3704080E-003	-6.8282013E+000	0
6.021399847886642E+001	9.4085848E-003	-6.7709265E+000	0
6.021479847884621E+001	9.4276723E-003	-6.7136521E+000	0
6.021559847882600E+001	9.2940545E-003	-6.6633778E+000	0
6.021659847880073E+001	9.4085848E-003	-6.6035585E+000	0
6.021739847878052E+001	9.4467606E-003	-6.5469203E+000	0
6.021839847875526E+001	9.4085848E-003	-6.4877367E+000	0
6.021939847873000E+001	9.4276723E-003	-6.4247351E+000	0
6.022039847870474E+001	9.4467606E-003	-6.3693695E+000	0
6.022139847867948E+001	9.4467606E-003	-6.3025494E+000	0
6.022239847865421E+001	9.3513196E-003	-6.2446389E+000	0
6.022339847862895E+001	9.4849374E-003	-6.1873651E+000	0
6.022439847860369E+001	9.4276723E-003	-6.1300907E+000	0
6.022559847857337E+001	9.4276723E-003	-6.0651798E+000	0
6.022659847854811E+001	9.4467606E-003	-6.0047231E+000	0
6.022779847851780E+001	9.4085848E-003	-5.9468126E+000	0
6.022899847848748E+001	9.4085848E-003	-5.8850837E+000	0
6.022999847846222E+001	9.4276723E-003	-5.8348093E+000	0
6.023119847843191E+001	9.2940545E-003	-5.7679892E+000	0
6.023239847840159E+001	9.3894964E-003	-5.7177153E+000	0
6.023339847837633E+001	9.2940545E-003	-5.6623502E+000	0
6.023459847834602E+001	9.3894964E-003	-5.6025300E+000	0
6.023599847831065E+001	9.4467606E-003	-5.5401649E+000	0
6.023739847827528E+001	9.4658490E-003	-5.4784355E+000	0
6.023859847824497E+001	9.3513196E-003	-5.4268889E+000	0
6.023979847821465E+001	9.4085848E-003	-5.3715239E+000	0
6.024099847818434E+001	9.4276723E-003	-5.3174310E+000	0
6.024219847815402E+001	9.4849374E-003	-5.2614293E+000	0
6.024379847811360E+001	9.3513196E-003	-5.2022462E+000	0
6.024519847807824E+001	9.4276723E-003	-5.1417899E+000	0
6.024659847804287E+001	9.3322312E-003	-5.0870605E+000	0
6.024799847800750E+001	9.3131429E-003	-5.0348778E+000	0
6.024939847797214E+001	9.4849374E-003	-4.9801483E+000	0
6.025079847793677E+001	9.5040258E-003	-4.9279656E+000	0
6.025219847790140E+001	9.4276723E-003	-4.8776913E+000	0
6.025379847786098E+001	9.3513196E-003	-4.8235989E+000	0
6.025539847782056E+001	9.3131429E-003	-4.7625060E+000	0
6.025699847778014E+001	9.4467606E-003	-4.7109590E+000	0
6.025879847773467E+001	9.3894964E-003	-4.6536846E+000	0
6.026019847769930E+001	9.3704080E-003	-4.6034107E+000	0
6.026179847765889E+001	9.4276723E-003	-4.5531368E+000	0
6.026339847761847E+001	9.4658490E-003	-4.5022259E+000	0
6.026519847757299E+001	9.3322312E-003	-4.4474974E+000	0
6.026679847753257E+001	9.5803794E-003	-4.3965869E+000	0
6.026879847748205E+001	9.4658490E-003	-4.3418579E+000	0
6.027059847743658E+001	9.4849374E-003	-4.2903109E+000	0
6.027239847739111E+001	9.3513196E-003	-4.2400374E+000	0
6.027299847737595E+001	9.3513196E-003	-4.3691378E+000	0
6.030319847661303E+001	9.5040258E-003	-3.5578666E+000	0
6.030599847654230E+001	9.3704080E-003	-3.5055034E+000	0
6.030879847647157E+001	9.3513196E-003	-3.4548583E+000	0
6.031179847639578E+001	9.3894964E-003	-3.4019861E+000	0
6.031499847631494E+001	9.4276723E-003	-3.3491144E+000	0
6.031819847623410E+001	9.4085848E-003	-3.2966242E+000	0
6.032139847615326E+001	9.3894964E-003	-3.2459793E+000	0
6.032479847606737E+001	9.3131429E-003	-3.1948884E+000	0
6.032819847598148E+001	9.3513196E-003	-3.1439252E+000	0
6.033179847589054E+001	9.4276723E-003	-3.0924530E+000	0
6.033559847579454E+001	9.3704080E-003	-3.0402174E+000	0
6.033959847569349E+001	9.3894964E-003	-2.9874728E+000	0
6.034359847559244E+001	9.4085848E-003	-2.9363186E+000	0
6.034759847549140E+001	9.4085848E-003	-2.8862460E+000	0
6.035199847538024E+001	9.5040258E-003	-2.8348374E+000	0
6.035639847526909E+001	9.3704080E-003	-2.7837467E+000	0
6.036119847514783E+001	9.3704080E-003	-2.7313838E+000	0
6.036599847502657E+001	9.4085848E-003	-2.6807389E+000	0
6.037099847490026E+001	9.3322312E-003	-2.6297119E+000	0
6.037619847476890E+001	9.3704080E-003	-2.5781126E+000	0
6.038159847463248E+001	9.4276723E-003	-2.5276582E+000	0
6.038719847449102E+001	9.3894964E-003	-2.4766314E+000	0
6.039299847434449E+001	9.4276723E-003	-2.4261770E+000	0
6.039919847418787E+001	9.3513196E-003	-2.3740687E+000	0
6.040559847402619E+001	9.4849374E-003	-2.3234870E+000	0
6.041219847385946E+001	9.2367893E-003	-2.2731600E+000	0
6.041919847368263E+001	9.3513196E-003	-2.2220695E+000	0
6.042619847350579E+001	9.4276723E-003	-2.1720607E+000	0
6.043399847330875E+001	9.3513196E-003	-2.1203339E+000	0
6.044199847310665E+001	9.3704080E-003	-2.0703249E+000	0
6.045039847289445E+001	9.4467606E-003	-2.0198708E+000	0
6.045899847267719E+001	9.3894964E-003	-1.9697983E+000	0
6.046839847243973E+001	9.2940545E-003	-1.9189621E+000	0
6.047819847219216E+001	9.3513196E-003	-1.8681262E+000	0
6.048839847193449E+001	9.4085848E-003	-1.8171629E+000	0
6.049959847165155E+001	9.4467606E-003	-1.7654997E+000	0
6.051119847135851E+001	9.4849374E-003	-1.7149819E+000	0
6.052339847105031E+001	9.3894964E-003	-1.6645913E+000	0
6.053639847072191E+001	9.4276723E-003	-1.6136280E+000	0
6.055039847036824E+001	9.2940545E-003	-1.5634918E+000	0
6.056519846999436E+001	9.2940545E-003	-1.5124651E+000	0
6.058099846959522E+001	9.3513196E-003	-1.4624562E+000	0
6.059799846916576E+001	9.4085848E-003	-1.4113021E+000	0
6.061639846870094E+001	9.3322312E-003	-1.3612295E+000	0
6.063599846820580E+001	9.3704080E-003	-1.3110298E+000	0
6.065719846767024E+001	9.4276723E-003	-1.2603847E+000	0
6.068039846708416E+001	9.3894964E-003	-1.2103121E+000	0
6.070599846643745E+001	9.5040258E-003	-1.1597943E+000	0
6.073339846574527E+001	9.3322312E-003	-1.1095946E+000	0
6.076419846496719E+001	9.3322312E-003	-1.0594584E+000	0
6.079779846411839E+001	9.4849374E-003	-1.0094495E+000	0
6.083599846315337E+001	9.2940545E-003	-9.5931339E-001	0
6.087919846206205E+001	9.2940545E-003	-9.0866822E-001	0
6.092719846084947E+001	9.4276723E-003	-8.5859573E-001	0
6.098119845948531E+001	9.3131429E-003	-8.0845958E-001	0
6.104359845790896E+001	9.4658490E-003	-7.5762361E-001	0
6.111599845607998E+001	9.3513196E-003	-7.0736021E-001	0
6.119879845398827E+001	9.4658490E-003	-6.5735132E-001	0
6.129739845149743E+001	9.4467606E-003	-6.0727888E-001	0
6.141439844854176E+001	9.3513196E-003	-5.5714273E-001	0
6.155879844489391E+001	9.3322312E-003	-5.0700659E-001	0
6.174039844030631E+001	9.4658490E-003	-4.5680678E-001	0
6.198459843413730E+001	9.3513196E-003	-4.0677655E-001	0
6.229919842618983E+001	9.4085848E-003	-3.5664061E-001	0
6.274079841503408E+001	9.4467606E-003	-3.0658111E-001	0
6.339879839841160E+001	9.3704080E-003	-2.5657886E-001	0
6.447119837132050E+001	9.2367893E-003	-2.0654477E-001	0
6.505279835662805E+001	9.4085848E-003	-1.8864454E-001	0
6.505339835659834E+001	9.4849374E-003	-1.8813530E-001	0
6.772199828918383E+001	9.4085848E-003	-1.3810121E-001	0
7.500819810511894E+001	9.3513196E-003	-8.8092610E-002	0
8.500819785249769E+001	9.3704080E-003	-6.2827311E-002	0
9.500819759987644E+001	9.3322312E-003	-5.0019603E-002	0
1.050081973472552E+002	9.4467606E-003	-4.1796252E-002	0
1.150081970946339E+002	9.2940545E-003	-3.6060322E-002	0
1.250081968420127E+002	9.3322312E-003	-3.1859234E-002	0
1.350081965893914E+002	9.4085848E-003	-2.8764101E-002	0
1.450081963367702E+002	9.4467606E-003	-2.6485380E-002	0
1.550081960841489E+002	9.3513196E-003	-2.4468835E-002	0
1.650081958315277E+002	9.3131429E-003	-2.3034535E-002	0
1.750081955789065E+002	9.3513196E-003	-2.1363517E-002	0
1.850081953262852E+002	9.3513196E-003	-2.0115664E-002	0
1.950081950736640E+002	9.3513196E-003	-1.9177705E-002	0
2.050081948210427E+002	9.2367893E-003	-1.8211111E-002	0
2.150081945684215E+002	9.2749661E-003	-1.7374966E-002	0
2.250081943158002E+002	9.2558777E-003	-1.6699178E-002	0
2.350081940631790E+002	9.3704080E-003	-1.6026571E-002	0
2.450081938105577E+002	9.3322312E-003	-1.5448144E-002	0
2.550081935579365E+002	9.3894964E-003	-1.4930166E-002	0
2.650081933053152E+002	9.4085848E-003	-1.4406461E-002	0
2.750081930526940E+002	9.3894964E-003	-1.4046296E-002	0
2.850081928000727E+002	9.4085848E-003	-1.3481867E-002	0
2.950081925474515E+002	9.4276723E-003	-1.3113429E-002	0
3.050081922948302E+002	9.4276723E-003	-1.2811168E-002	0
3.150081920422090E+002	9.3322312E-003	-1.2421732E-002	0
3.250081917895877E+002	9.3704080E-003	-1.2180560E-002	0
3.350081915369665E+002	9.3513196E-003	-1.1860483E-002	0
3.450081912843452E+002	9.3322312E-003	-1.1625039E-002	0
3.550081910317240E+002	9.4276723E-003	-1.1286509E-002	0
3.650081907791027E+002	9.4276723E-003	-1.1112153E-002	0
3.750081905264815E+002	9.3322312E-003	-1.0848710E-002	0
3.850081902738602E+002	9.3513196E-003	-1.0611993E-002	0
3.950081900212390E+002	9.3894964E-003	-1.0477726E-002	0
4.050081897686177E+002	9.2367893E-003	-1.0287463E-002	0
4.150081895159965E+002	9.3894964E-003	-1.0009383E-002	0
4.250081892633752E+002	9.2749661E-003	-9.8401178E-003	0
4.350081890107540E+002	9.3894964E-003	-9.7013973E-003	0
4.450081887581327E+002	9.3704080E-003	-9.5276777E-003	0
4.550081885055115E+002	9.5040258E-003	-9.3660476E-003	0
4.650081882528903E+002	9.3704080E-003	-9.1834199E-003	0
4.750081880002690E+002	9.3513196E-003	-9.2050564E-003	0
4.850081877476478E+002	9.4085848E-003	-9.0097003E-003	0
4.950081874950265E+002	9.3513196E-003	-8.9237951E-003	0
5.050081872424053E+002	9.3513196E-003	-8.7392582E-003	0
5.150081869897840E+002	9.3704080E-003	-8.5890824E-003	0
5.250081867371628E+002	9.4085848E-003	-8.4879054E-003	0
5.350081864845415E+002	9.3704080E-003	-8.3937282E-003	0
5.450081862319203E+002	9.4849374E-003	-8.2410071E-003	0
5.550081859792990E+002	9.3322312E-003	-8.1436476E-003	0
5.650081857266778E+002	9.3322312E-003	-8.0310171E-003	0
5.750081854740565E+002	9.3322312E-003	-7.9260217E-003	0
5.850081852214353E+002	9.4658490E-003	-7.8248437E-003	0
5.950081849688140E+002	9.2558777E-003	-7.7809370E-003	0
6.050081847161928E+002	9.3322312E-003	-7.6479423E-003	0
6.150081844635715E+002	9.3322312E-003	-7.5486735E-003	0
6.250081842109503E+002	9.3894964E-003	-7.5225844E-003	0
6.350081839583290E+002	9.2749661E-003	-7.4710413E-003	0
6.450081837057078E+002	9.4085848E-003	-7.3501370E-003	0
6.550081834530865E+002	9.3894964E-003	-7.2604138E-003	0
6.650081832004653E+002	9.3894964E-003	-7.1636918E-003	0
6.750081829478440E+002	9.3704080E-003	-7.1216933E-003	0
6.850081826952228E+002	9.2749661E-003	-7.0345150E-003	0
6.950081824426015E+002	9.3131429E-003	-6.9931531E-003	0
7.050081821899803E+002	9.3704080E-003	-6.8245246E-003	0
7.150081819373590E+002	9.3513196E-003	-6.8187970E-003	0
7.250081816847378E+002	9.3513196E-003	-6.7787082E-003	0
7.350081814321165E+002	9.4276723E-003	-6.7138015E-003	0
7.450081811794953E+002	9.3322312E-003	-6.5897163E-003	0
7.550081809268740E+002	9.2940545E-003	-6.6348962E-003	0
7.650081806742528E+002	9.3704080E-003	-6.5171747E-003	0
7.750081804216316E+002	9.3513196E-003	-6.5108109E-003	0
7.850081801690103E+002	9.4276723E-003	-6.3695447E-003	0
7.950081799163891E+002	9.3704080E-003	-6.3186381E-003	0
8.050081796637678E+002	9.3513196E-003	-6.2212786E-003	0
8.150081794111466E+002	9.3131429E-003	-6.2855482E-003	0
8.250081791585253E+002	9.3894964E-003	-6.1156470E-003	0
8.350081789059041E+002	9.3322312E-003	-6.3052746E-003	0
8.450081786532828E+002	9.3131429E-003	-6.2308232E-003	0
8.550081784006616E+002	9.3513196E-003	-6.1385548E-003	0
8.650081781480403E+002	9.3322312E-003	-6.0660131E-003	0
8.750081778954191E+002	9.3894964E-003	-6.0494682E-003	0
8.850081776427978E+002	9.3894964E-003	-5.9896526E-003	0
8.950081773901766E+002	9.4467606E-003	-5.9578354E-003	0
9.050081771375553E+002	9.3131429E-003	-5.8795661E-003	0
9.150081768849341E+002	9.2940545E-003	-5.8146603E-003	0
9.250081766323128E+002	9.2940545E-003	-5.8598397E-003	0
9.350081763796916E+002	9.3322312E-003	-5.7446631E-003	0
9.450081761270703E+002	9.4276723E-003	-5.6702117E-003	0
9.550081758744491E+002	9.3131429E-003	-5.6823026E-003	0
9.650081756218278E+002	9.2940545E-003	-5.6033963E-003	0
9.750081753692066E+002	9.3322312E-003	-5.6110327E-003	0
9.850081751165853E+002	9.4849374E-003	-5.5893972E-003	0
9.950081748639641E+002	9.2749661E-003	-5.5098552E-003	0
1.005008174611343E+003	9.4276723E-003	-5.4678568E-003	0
1.015008174358722E+003	9.4658490E-003	-5.4583121E-003	0
1.025008174106100E+003	9.3894964E-003	-5.3946786E-003	0
1.035008173853479E+003	9.4085848E-003	-5.3978604E-003	0
1.045008173600858E+003	9.3513196E-003	-5.3864066E-003	0
1.055008173348237E+003	9.4276723E-003	-5.2795019E-003	0
1.065008173095615E+003	9.4467606E-003	-5.2966834E-003	0
1.075008172842994E+003	9.3704080E-003	-5.1865969E-003	0
1.085008172590373E+003	9.2749661E-003	-5.2775932E-003	0
1.095008172337752E+003	9.4276723E-003	-5.1885061E-003	0
1.105008172085130E+003	9.2940545E-003	-5.2005965E-003	0
1.115008171832509E+003	9.2558777E-003	-5.1789610E-003	0
1.125008171579888E+003	9.3131429E-003	-5.1286900E-003	0
1.135008171327267E+003	9.3704080E-003	-5.0319675E-003	0
1.145008171074645E+003	9.3322312E-003	-5.0421488E-003	0
1.155008170822024E+003	9.3704080E-003	-5.0186045E-003	0
1.165008170569403E+003	9.2749661E-003	-4.9861511E-003	0
1.175008170316782E+003	9.3894964E-003	-4.9619707E-003	0
1.185008170064160E+003	9.4467606E-003	-4.9142451E-003	0
1.195008169811539E+003	9.3131429E-003	-4.9085184E-003	0
1.205008169558918E+003	9.2940545E-003	-4.8302491E-003	0
1.215008169306297E+003	9.3322312E-003	-4.8353397E-003	0
1.225008169053675E+003	9.2558777E-003	-4.7392529E-003	0
1.235008168801054E+003	9.3894964E-003	-4.7748876E-003	0
1.245008168548433E+003	9.3513196E-003	-4.7360715E-003	0
1.255008168295812E+003	9.2749661E-003	-4.6520750E-003	0
1.265008168043190E+003	9.3131429E-003	-4.9906052E-003	0
1.275008167790569E+003	9.3322312E-003	-4.6730745E-003	0
1.285008167537948E+003	9.2749661E-003	-4.5884410E-003	0
1.295008167285327E+003	9.2940545E-003	-4.6177129E-003	0
1.305008167032705E+003	9.4276723E-003	-4.5718970E-003	0
1.315008166780084E+003	9.3322312E-003	-4.5769876E-003	0
1.325008166527463E+003	9.3131429E-003	-4.5553520E-003	0
1.335008166274842E+003	9.3704080E-003	-4.4934903E-003	0
1.345008166022220E+003	9.4276723E-003	-4.4768709E-003	0
1.355008165769599E+003	9.3704080E-003	-4.4667465E-003	0
1.365008165516978E+003	9.3704080E-003	-4.4485354E-003	0
1.375008165264357E+003	9.3131429E-003	-4.4947644E-003	0
1.385008165011735E+003	9.3704080E-003	-4.4667465E-003	0
1.395008164759114E+003	9.3322312E-003	-4.4211545E-003	0
1.405008164506493E+003	9.3894964E-003	-4.3968298E-003	0
1.415008164253872E+003	9.3322312E-003	-4.3404764E-003	0
1.425008164001250E+003	9.2749661E-003	-4.3338542E-003	0
1.435008163748629E+003	9.3322312E-003	-4.2917007E-003	0
1.445008163496008E+003	9.4085848E-003	-4.2800480E-003	0
1.455008163243387E+003	9.4085848E-003	-4.2391038E-003	0
1.465008162990765E+003	9.3513196E-003	-4.2201281E-003	0
1.475008162738144E+003	9.2940545E-003	-4.2032544E-003	0
1.485008162485523E+003	9.3513196E-003	-4.1981600E-003	0
1.495008162232902E+003	9.3894964E-003	-4.1539683E-003	0
1.505008161980280E+003	9.3894964E-003	-4.1322550E-003	0
1.515008161727659E+003	9.3513196E-003	-4.0997160E-003	0
1.525008161475038E+003	9.4085848E-003	-4.0943674E-003	0
1.535008161222417E+003	9.4276723E-003	-4.0763472E-003	0
1.545008160969795E+003	9.2558777E-003	-4.0791491E-003	0
1.555008160717174E+003	9.4085848E-003	-4.0231775E-003	0
1.565008160464553E+003	9.4467606E-003	-4.0187836E-003	0
1.575008160211932E+003	9.3322312E-003	-3.9929948E-003	0
1.585008159959310E+003	9.3704080E-003	-3.9999993E-003	0
1.595008159706689E+003	9.3704080E-003	-3.9516054E-003	0
1.605008159454068E+003	9.4849374E-003	-4.0694065E-003	0
1.615008159201447E+003	9.2940545E-003	-4.0122890E-003	0
1.625008158948825E+003	9.4467606E-003	-3.9007277E-003	0
1.635008158696204E+003	9.3322312E-003	-3.9091967E-003	0
1.645008158443583E+003	9.3704080E-003	-3.8924497E-003	0
1.655008158190962E+003	9.3513196E-003	-3.8697172E-003	0
1.665008157938340E+003	9.3513196E-003	-3.8567912E-003	0
1.675008157685719E+003	9.3322312E-003	-3.8571095E-003	0
1.685008157433098E+003	9.2940545E-003	-3.8155927E-003	0
1.695008157180477E+003	9.3894964E-003	-3.8006923E-003	0
1.705008156927855E+003	9.3894964E-003	-3.7734387E-003	0
1.715008156675234E+003	9.3894964E-003	-3.7482230E-003	0
1.725008156422613E+003	9.2749661E-003	-3.7364429E-003	0
1.735008156169992E+003	9.2749661E-003	-3.7189955E-003	0
1.745008155917370E+003	9.2940545E-003	-3.7249175E-003	0
1.755008155664749E+003	9.3513196E-003	-3.7065786E-003	0
1.765008155412128E+003	9.3131429E-003	-3.6863296E-003	0
1.775008155159507E+003	9.4276723E-003	-3.6528362E-003	0
1.785008154906885E+003	9.3894964E-003	-3.6516900E-003	0
1.795008154654264E+003	9.3704080E-003	-3.6321413E-003	0
1.805008154401643E+003	9.3704080E-003	-3.6115102E-003	0
1.815008154149022E+003	9.4276723E-003	-3.5874404E-003	0
1.825008153896400E+003	9.2749661E-003	-3.5797355E-003	0
1.835008153643779E+003	9.4085848E-003	-3.5768067E-003	0
1.845008153391158E+003	9.3322312E-003	-3.5265661E-003	0
1.855008153138537E+003	9.3704080E-003	-3.5379641E-003	0
1.865008152885915E+003	9.4085848E-003	-3.5175877E-003	0
1.875008152633294E+003	9.3513196E-003	-3.5150405E-003	0
1.885008152380673E+003	9.2749661E-003	-3.5042791E-003	0
1.895008152128052E+003	9.3322312E-003	-3.4933272E-003	0
1.905008151875430E+003	9.4085848E-003	-3.4655004E-003	0
1.915008151622809E+003	9.3513196E-003	-3.4439778E-003	0
1.925008151370188E+003	9.3322312E-003	-3.4327707E-003	0
1.935008151117567E+003	9.3894964E-003	-3.4029703E-003	0
1.945008150864945E+003	9.2940545E-003	-3.4061542E-003	0
1.955008150612324E+003	9.3704080E-003	-3.3971120E-003	0
1.965008150359703E+003	9.3513196E-003	-3.3751437E-003	0
1.975008150107082E+003	9.3894964E-003	-3.4011237E-003	0
1.985008149854461E+003	9.4085848E-003	-3.3410769E-003	0
1.995008149601839E+003	9.3322312E-003	-3.3309525E-003	0
2.005008149349218E+003	9.3704080E-003	-3.3208914E-003	0
2.015008149096597E+003	9.3513196E-003	-3.2931289E-003	0
2.025008148843976E+003	9.3704080E-003	-3.2855512E-003	0
2.035008148591354E+003	9.3131429E-003	-3.2960577E-003	0
2.045008148338733E+003	9.3131429E-003	-3.2904544E-003	0
2.055008148086112E+003	9.3704080E-003	-3.2437157E-003	0
2.065008147833491E+003	9.4276723E-003	-3.2362021E-003	0
2.075008147580869E+003	9.4658490E-003	-3.2287522E-003	0
2.085008147328248E+003	9.3894964E-003	-3.2360114E-003	0
2.095008147075627E+003	9.2749661E-003	-3.2127057E-003	0
2.105008146823006E+003	9.4276723E-003	-3.1920746E-003	0
2.115008146570384E+003	9.3513196E-003	-3.1869803E-003	0
2.125008146317763E+003	9.3704080E-003	-3.1879353E-003	0
2.135008146065142E+003	9.3513196E-003	-3.1553970E-003	0
2.145008145812521E+003	9.2940545E-003	-3.1545053E-003	0
2.155008145559899E+003	9.3131429E-003	-3.1348292E-003	0
2.165008145307278E+003	9.3704080E-003	-3.1234315E-003	0
2.175008145054657E+003	9.3131429E-003	-3.1119061E-003	0
2.185008144802036E+003	9.3704080E-003	-3.1027368E-003	0
2.195008144549414E+003	9.4085848E-003	-3.1026732E-003	0
2.205008144296793E+003	9.3704080E-003	-3.0560622E-003	0
2.215008144044172E+003	9.2940545E-003	-3.1084039E-003	0
2.225008143791551E+003	9.3894964E-003	-3.0939493E-003	0
2.235008143538929E+003	9.3704080E-003	-3.3891525E-003	0
2.245008143286308E+003	9.2558777E-003	-3.1123520E-003	0
2.255008143033687E+003	9.3704080E-003	-3.0582270E-003	0
2.265008142781066E+003	9.3704080E-003	-3.0681605E-003	0
2.275008142528444E+003	9.2940545E-003	-3.0377232E-003	0
2.285008142275823E+003	9.4276723E-003	-3.0136534E-003	0
2.295008142023202E+003	9.2940545E-003	-3.0229506E-003	0
2.305008141770581E+003	9.4276723E-003	-2.9870369E-003	0
2.315008141517959E+003	9.3704080E-003	-2.9565995E-003	0
2.325008141265338E+003	9.4467606E-003	-2.9748748E-003	0
2.335008141012717E+003	9.2940545E-003	-2.9656419E-003	0
2.345008140760096E+003	9.2749661E-003	-3.0157550E-003	0
2.355008140507474E+003	9.3513196E-003	-3.0083684E-003	0
2.365008140254853E+003	9.3704080E-003	-3.0160095E-003	0
2.375008140002232E+003	9.3513196E-003	-2.9493405E-003	0
2.385008139749611E+003	9.3322312E-003	-2.9426545E-003	0
2.395008139496989E+003	9.4085848E-003	-2.9693984E-003	0
2.405008139244368E+003	9.3704080E-003	-2.9602929E-003	0
2.415008138991747E+003	9.3513196E-003	-2.9451379E-003	0
2.425008138739126E+003	9.3131429E-003	-2.9017106E-003	0
2.435008138486504E+003	9.3131429E-003	-2.8645876E-003	0
2.445008138233883E+003	9.3131429E-003	-2.8761129E-003	0
2.455008137981262E+003	9.3131429E-003	-2.8838175E-003	0
2.465008137728641E+003	9.4085848E-003	-2.8219880E-003	0
2.475008137476019E+003	9.4467606E-003	-2.8771316E-003	0
2.485008137223398E+003	9.4276723E-003	-2.8389897E-003	0
2.495008136970777E+003	9.2749661E-003	-2.8929871E-003	0
2.505008136718156E+003	9.3131429E-003	-2.8448477E-003	0
2.515008136465534E+003	9.2367893E-003	-2.8157479E-003	0
2.525008136212913E+003	9.3131429E-003	-2.7862659E-003	0
2.535008135960292E+003	9.4276723E-003	-2.7735941E-003	0
2.545008135707671E+003	9.4085848E-003	-2.7536633E-003	0
2.555008135455049E+003	9.2749661E-003	-2.7429659E-003	0
2.565008135202428E+003	9.3322312E-003	-2.7207427E-003	0
2.575008134949807E+003	9.3513196E-003	-2.7281928E-003	0
2.585008134697186E+003	9.3513196E-003	-2.7326501E-003	0
2.595008134444564E+003	9.3704080E-003	-2.6798628E-003	0
2.605008134191943E+003	9.2749661E-003	-2.7074979E-003	0
2.615008133939322E+003	9.3704080E-003	-2.7143115E-003	0
2.625008133686701E+003	9.5040258E-003	-2.6855934E-003	0
2.635008133434079E+003	9.3894964E-003	-2.6866759E-003	0
2.645008133181458E+003	9.3131429E-003	-2.7530266E-003	0
2.655008132928837E+003	9.2558777E-003	-2.6857846E-003	0
2.665008132676216E+003	9.3513196E-003	-2.6588493E-003	0
2.675008132423594E+003	9.3322312E-003	-2.6789713E-003	0
2.685008132170973E+003	9.3704080E-003	-2.6526093E-003	0
2.695008131918352E+003	9.3513196E-003	-2.6205161E-003	0
2.705008131665731E+003	9.3322312E-003	-2.6015406E-003	0
2.715008131413109E+003	9.3513196E-003	-2.6165047E-003	0
2.725008131160488E+003	9.3322312E-003	-2.6217259E-003	0
2.735008130907867E+003	9.3894964E-003	-2.6033237E-003	0
2.745008130655246E+003	9.3704080E-003	-2.5875319E-003	0
2.755008130402624E+003	9.3131429E-003	-2.5818648E-003	0
2.765008130150003E+003	9.2940545E-003	-2.5825652E-003	0
2.775008129897382E+003	9.2940545E-003	-2.5504723E-003	0
2.785008129644761E+003	9.3322312E-003	-2.5541019E-003	0
2.795008129392139E+003	9.3322312E-003	-2.5523191E-003	0
2.805008129139518E+003	9.3513196E-003	-2.5450599E-003	0
2.815008128886897E+003	9.3894964E-003	-2.5431497E-003	0
2.825008128634276E+003	9.4276723E-003	-2.5233461E-003	0
2.835008128381654E+003	9.3513196E-003	-2.5053257E-003	0
2.845008128129033E+003	9.3513196E-003	-2.5205447E-003	0
2.855008127876412E+003	9.3131429E-003	-2.5122031E-003	0
2.865008127623791E+003	9.4276723E-003	-2.4936732E-003	0
2.875008127371169E+003	9.2940545E-003	-2.5132855E-003	0
2.885008127118548E+003	9.3322312E-003	-2.4606888E-003	0
2.895008126865927E+003	9.3704080E-003	-2.4818929E-003	0
2.905008126613306E+003	9.4276723E-003	-2.4760985E-003	0
2.915008126360684E+003	9.3513196E-003	-2.4553400E-003	0
2.925008126108063E+003	9.3131429E-003	-2.4822750E-003	0
2.935008125855442E+003	9.3513196E-003	-2.4703040E-003	0
2.945008125602821E+003	9.3704080E-003	-2.4838033E-003	0
2.955008125350199E+003	9.4849374E-003	-2.5502178E-003	0
2.965008125097578E+003	9.3894964E-003	-2.5400296E-003	0
2.975008124844957E+003	9.3322312E-003	-2.5348719E-003	0
2.985008124592336E+003	9.3322312E-003	-2.4762258E-003	0
2.995008124339714E+003	9.2940545E-003	-2.4413313E-003	0
3.005008124087093E+003	9.3322312E-003	-2.4254760E-003	0
3.015008123834472E+003	9.3704080E-003	-2.4408218E-003	0
3.025008123581851E+003	9.3704080E-003	-2.4002602E-003	0
3.035008123329229E+003	9.3704080E-003	-2.3909633E-003	0
3.045008123076608E+003	9.3131429E-003	-2.3770183E-003	0
3.055008122823987E+003	9.3322312E-003	-2.3705231E-003	0
3.065008122571366E+003	9.4467606E-003	-2.3772093E-003	0
3.075008122318744E+003	9.3131429E-003	-2.3692499E-003	0
3.085008122066123E+003	9.3704080E-003	-2.3677852E-003	0
3.095008121813502E+003	9.2558777E-003	-2.3828766E-003	0
3.105008121560881E+003	9.3322312E-003	-2.3859965E-003	0
3.115008121308259E+003	9.3704080E-003	-2.3601439E-003	0
3.125008121055638E+003	9.3704080E-003	-2.3474088E-003	0
3.135008120803017E+003	9.3704080E-003	-2.3693771E-003	0
3.145008120550396E+003	9.3131429E-003	-2.3535215E-003	0
3.155008120297774E+003	9.4276723E-003	-2.3152523E-003	0
3.165008120045153E+003	9.3894964E-003	-2.3125142E-003	0
3.175008119792532E+003	9.3513196E-003	-2.3290699E-003	0
3.185008119539911E+003	9.4467606E-003	-2.3171625E-003	0
3.195008119287289E+003	9.4085848E-003	-2.2694690E-003	0
3.205008119034668E+003	9.2940545E-003	-2.3026443E-003	0
3.215008118782047E+003	9.4085848E-003	-2.2880626E-003	0
3.225008118529426E+003	9.2940545E-003	-2.2799757E-003	0
3.235008118276804E+003	9.4085848E-003	-2.2646296E-003	0
3.245008118024183E+003	9.4085848E-003	-2.2410695E-003	0
3.255008117771562E+003	9.4085848E-003	-2.2564153E-003	0
3.265008117518941E+003	9.3704080E-003	-2.2466094E-003	0
3.275008117266319E+003	9.4085848E-003	-2.2260419E-003	0
3.285008117013698E+003	9.4276723E-003	-2.2224123E-003	0
3.295008116761077E+003	9.3704080E-003	-2.1901920E-003	0
3.305008116508456E+003	9.3704080E-003	-2.2264875E-003	0
3.315008116255834E+003	9.3322312E-003	-2.2147074E-003	0
3.325008116003213E+003	9.4276723E-003	-2.1878360E-003	0
3.335008115750592E+003	9.2749661E-003	-2.1894278E-003	0
3.345008115497971E+003	9.3894964E-003	-2.1905741E-003	0
3.355008115245349E+003	9.3513196E-003	-2.1956682E-003	0
3.365008114992728E+003	9.4276723E-003	-2.1821051E-003	0
3.375008114740107E+003	9.2177009E-003	-2.1573352E-003	0
3.385008114487486E+003	9.2367893E-003	-2.1859894E-003	0
3.395008114234864E+003	9.3894964E-003	-2.1639576E-003	0
3.405008113982243E+003	9.3894964E-003	-2.1550427E-003	0
3.415008113729622E+003	9.3704080E-003	-2.1648488E-003	0
3.425008113477001E+003	9.4276723E-003	-2.1540876E-003	0
3.435008113224379E+003	9.4085848E-003	-2.1454277E-003	0
3.445008112971758E+003	9.5231142E-003	-2.1546606E-003	0
3.455008112719137E+003	9.3894964E-003	-2.1512860E-003	0
3.465008112466516E+003	9.3894964E-003	-2.1167733E-003	0
3.475008112213894E+003	9.2940545E-003	-2.1029557E-003	0
3.485008111961273E+003	9.3131429E-003	-2.1356216E-003	0
3.495008111708652E+003	9.3513196E-003	-2.0950597E-003	0
3.505008111456031E+003	9.3131429E-003	-2.1228227E-003	0
3.515008111203410E+003	9.3322312E-003	-2.1090047E-003	0
3.525008110950788E+003	9.2749661E-003	-2.0872911E-003	0
3.535008110698167E+003	9.2558777E-003	-2.0921943E-003	0
3.545008110445546E+003	9.3894964E-003	-2.0853172E-003	0
3.555008110192925E+003	9.3513196E-003	-2.0987529E-003	0
3.565008109940303E+003	9.3322312E-003	-2.0664688E-003	0
3.575008109687682E+003	9.3322312E-003	-2.2899727E-003	0
3.585008109435061E+003	9.3322312E-003	-2.1901282E-003	0
3.595008109182440E+003	9.2177009E-003	-2.0904113E-003	0
3.605008108929818E+003	9.3131429E-003	-2.0825155E-003	0
3.615008108677197E+003	9.3513196E-003	-2.0522056E-003	0
3.625008108424576E+003	9.3894964E-003	-2.0308103E-003	0
3.635008108171955E+003	9.4085848E-003	-2.0388335E-003	0
3.645008107919333E+003	9.3513196E-003	-2.0204310E-003	0
3.655008107666712E+003	9.3894964E-003	-2.0390246E-003	0
3.665008107414091E+003	9.4085848E-003	-2.0271169E-003	0
3.675008107161470E+003	9.3322312E-003	-2.0294094E-003	0
3.685008106908848E+003	9.3704080E-003	-2.0252066E-003	0
3.695008106656227E+003	9.4085848E-003	-2.0224049E-003	0
3.705008106403606E+003	9.2940545E-003	-1.9925407E-003	0
3.715008106150985E+003	9.4467606E-003	-2.0040662E-003	0
3.725008105898363E+003	9.3513196E-003	-1.9804423E-003	0
3.735008105645742E+003	9.2940545E-003	-1.9799967E-003	0
3.745008105393121E+003	9.3322312E-003	-1.9798055E-003	0
3.755008105140500E+003	9.3322312E-003	-1.9675798E-003	0
3.765008104887878E+003	9.3131429E-003	-1.9630587E-003	0
3.775008104635257E+003	9.3513196E-003	-1.9616578E-003	0
3.785008104382636E+003	9.3322312E-003	-1.9705088E-003	0
3.795008104130015E+003	9.3131429E-003	-1.9631223E-003	0
3.805008103877393E+003	9.4276723E-003	-1.9475217E-003	0
3.815008103624772E+003	9.3704080E-003	-1.9677707E-003	0
3.825008103372151E+003	9.3513196E-003	-1.9482221E-003	0
3.835008103119530E+003	9.3131429E-003	-1.9316026E-003	0
3.845008102866908E+003	9.3894964E-003	-1.9487315E-003	0
3.855008102614287E+003	9.3704080E-003	-1.9149829E-003	0
3.865008102361666E+003	9.3131429E-003	-1.9279730E-003	0
3.875008102109045E+003	9.3131429E-003	-1.9248528E-003	0
3.885008101856423E+003	9.2749661E-003	-1.9231973E-003	0
3.895008101603802E+003	9.3513196E-003	-1.9096341E-003	0
3.905008101351181E+003	9.3513196E-003	-1.9039671E-003	0
3.915008101098560E+003	9.3131429E-003	-2.0907298E-003	0
3.925008100845938E+003	9.2940545E-003	-1.9863006E-003	0
3.935008100593317E+003	9.2749661E-003	-1.9100801E-003	0
3.945008100340696E+003	9.2940545E-003	-1.9093159E-003	0
3.955008100088075E+003	9.3513196E-003	-1.8961985E-003	0
3.965008099835453E+003	9.2940545E-003	-1.8919959E-003	0
3.975008099582832E+003	9.3704080E-003	-1.8629596E-003	0
3.985008099330211E+003	9.3894964E-003	-1.8620680E-003	0
3.995008099077590E+003	9.4276723E-003	-1.8662070E-003	0
4.005008098824968E+003	9.3322312E-003	-1.8584384E-003	0
4.015008098572347E+003	9.3894964E-003	-1.8420100E-003	0
4.025008098319726E+003	9.4276723E-003	-1.8436656E-003	0
4.035008098067105E+003	9.3513196E-003	-1.8397814E-003	0
4.045008097814483E+003	9.4085848E-003	-1.8432835E-003	0
4.055008097561862E+003	9.3131429E-003	-1.8284470E-003	0
4.065008097309241E+003	9.3322312E-003	-1.8656339E-003	0
4.075008097056620E+003	9.3513196E-003	-1.8457669E-003	0
4.085008096803998E+003	9.3513196E-003	-1.8134194E-003	0
4.095008096551377E+003	9.4658490E-003	-1.8165396E-003	0
4.105008096417267E+003	9.2749661E-003	-1.8186407E-003	0
4.115008096296195E+003	9.3513196E-003	-1.8253905E-003	0
4.125008096175123E+003	9.3704080E-003	-1.8087709E-003	0
4.135008096054051E+003	9.2940545E-003	-1.8025307E-003	0
4.145008095932979E+003	9.3513196E-003	-1.7968635E-003	0
4.155008095811907E+003	9.4085848E-003	-1.7952718E-003	0
4.165008095690835E+003	9.4085848E-003	-1.7741948E-003	0
4.175008095569763E+003	9.3131429E-003	-1.7762959E-003	0
4.185008095448691E+003	9.4085848E-003	-1.7695464E-003	0
4.195008095327619E+003	9.3894964E-003	-1.7953989E-003	0
4.205008095206547E+003	9.4085848E-003	-1.7692917E-003	0
4.215008095085475E+003	9.4085848E-003	-1.7771876E-003	0
4.225008094964403E+003	9.3322312E-003	-1.7730485E-003	0
4.235008094843331E+003	9.2940545E-003	-1.7678272E-003	0
4.245008094722260E+003	9.3513196E-003	-1.7899864E-003	0
4.255008094601188E+003	9.3704080E-003	-1.7604406E-003	0
4.265008094480116E+003	9.3513196E-003	-1.7738765E-003	0
4.275008094359044E+003	9.3131429E-003	-1.7561107E-003	0
4.285008094237972E+003	9.3894964E-003	-1.7747678E-003	0
4.295008094116900E+003	9.3131429E-003	-1.7443942E-003	0
4.305008093995828E+003	9.3704080E-003	-1.8923144E-003	0
4.315008093874756E+003	9.4276723E-003	-1.7660443E-003	0
4.325008093753684E+003	9.3131429E-003	-1.7497430E-003	0
4.335008093632612E+003	9.2558777E-003	-1.8227798E-003	0
4.345008093511540E+003	9.3704080E-003	-1.7703741E-003	0
4.355008093390468E+003	9.4276723E-003	-1.7263102E-003	0
4.365008093269396E+003	9.2367893E-003	-1.6999483E-003	0
4.375008093148324E+003	9.4467606E-003	-1.7268196E-003	0
4.385008093027252E+003	9.3704080E-003	-1.6923072E-003	0
4.395008092906181E+003	9.3322312E-003	-1.7044055E-003	0
4.405008092785109E+003	9.4467606E-003	-1.7041509E-003	0
4.415008092664037E+003	9.3131429E-003	-1.6932623E-003	0
4.425008092542965E+003	9.3322312E-003	-1.7037051E-003	0
4.435008092421893E+003	9.3513196E-003	-1.6788713E-003	0
4.445008092300821E+003	9.3322312E-003	-1.6823736E-003	0
4.455008092179749E+003	9.3131429E-003	-1.7913873E-003	0
4.465008092058677E+003	9.4085848E-003	-1.6905878E-003	0
4.475008091937605E+003	9.2940545E-003	-1.6537829E-003	0
4.485008091816533E+003	9.2940545E-003	-1.6643531E-003	0
4.495008091695461E+003	9.3894964E-003	-1.6729494E-003	0
4.505008091574389E+003	9.2749661E-003	-1.6663908E-003	0
4.515008091453317E+003	9.2940545E-003	-1.6397742E-003	0
4.525008091332245E+003	9.3131429E-003	-1.6488163E-003	0
4.535008091211173E+003	9.3322312E-003	-1.6451867E-003	0
4.545008091090102E+003	9.3131429E-003	-1.6557568E-003	0
4.555008090969030E+003	9.2558777E-003	-1.6454413E-003	0
4.565008090847958E+003	9.3513196E-003	-1.6230273E-003	0
4.575008090726886E+003	9.3704080E-003	-1.6322603E-003	0
4.585008090605814E+003	9.4276723E-003	-1.6303499E-003	0
4.595008090484742E+003	9.2367893E-003	-1.6381185E-003	0
4.605008090363670E+003	9.3131429E-003	-1.6296497E-003	0
4.615008090242598E+003	9.3513196E-003	-1.6316872E-003	0
4.625008090121526E+003	9.3322312E-003	-1.6143675E-003	0
4.635008090000454E+003	9.3322312E-003	-1.6374182E-003	0
4.645008089879382E+003	9.3513196E-003	-1.6222631E-003	0
4.655008089758310E+003	9.3704080E-003	-1.6051980E-003	0
4.665008089637238E+003	9.3131429E-003	-1.5983209E-003	0
4.675008089516166E+003	9.3704080E-003	-1.6228362E-003	0
4.685008089395094E+003	9.3894964E-003	-1.5983209E-003	0
4.695008089274023E+003	9.3131429E-003	-1.5627258E-003	0
4.705008089152951E+003	9.4276723E-003	-1.6037334E-003	0
4.715008089031879E+003	9.3131429E-003	-1.5896609E-003	0
4.725008088910807E+003	9.3322312E-003	-1.6010590E-003	0
4.735008088789735E+003	9.3322312E-003	-1.5844395E-003	0
4.745008088668663E+003	9.3131429E-003	-1.5809374E-003	0
4.755008088547591E+003	9.3322312E-003	-1.5773078E-003	0
4.765008088426519E+003	9.3513196E-003	-1.5824018E-003	0
4.775008088305447E+003	9.3513196E-003	-1.5639993E-003	0
4.785008088184375E+003	9.2940545E-003	-1.5627895E-003	0
4.795008088063303E+003	9.2940545E-003	-1.6134122E-003	0
4.805008087942231E+003	9.3322312E-003	-1.7814538E-003	0
4.815008087821159E+003	9.3513196E-003	-1.6382459E-003	0
4.825008087700087E+003	9.3704080E-003	-1.5550210E-003	0
4.835008087579015E+003	9.4085848E-003	-1.5587780E-003	0
4.845008087457943E+003	9.3513196E-003	-1.5362366E-003	0
4.855008087336872E+003	9.3513196E-003	-1.5539386E-003	0
4.865008087215800E+003	9.3513196E-003	-1.5525377E-003	0
4.875008087094728E+003	9.4658490E-003	-1.5658460E-003	0
4.885008086973656E+003	9.3131429E-003	-1.5485261E-003	0
4.895008086852584E+003	9.3704080E-003	-1.5595421E-003	0
4.905008086731512E+003	9.2940545E-003	-1.5489083E-003	0
4.915008086610440E+003	9.3894964E-003	-1.5337532E-003	0
4.925008086489368E+003	9.3894964E-003	-1.5598604E-003	0
4.935008086368296E+003	9.2749661E-003	-1.5343264E-003	0
4.945008086247224E+003	9.4085848E-003	-1.5194260E-003	0
4.955008086126152E+003	9.3131429E-003	-1.4969484E-003	0
4.965008086005080E+003	9.3894964E-003	-1.5161785E-003	0
4.975008085884008E+003	9.2749661E-003	-1.4804561E-003	0
4.985008085762936E+003	9.4085848E-003	-1.5315246E-003	0
4.995008085641864E+003	9.4085848E-003	-1.5123580E-003	0
5.005008085520793E+003	9.3513196E-003	-1.5140135E-003	0
5.015008085399721E+003	9.3894964E-003	-1.4843404E-003	0
5.025008085278649E+003	9.4085848E-003	-1.4863780E-003	0
5.035008085157577E+003	9.4085848E-003	-1.4638366E-003	0
5.045008085036505E+003	9.3704080E-003	-1.4817934E-003	0
5.055008084915433E+003	9.2749661E-003	-1.5003232E-003	0
5.065008084794361E+003	9.3894964E-003	-1.4854866E-003	0
5.075008084673289E+003	9.3131429E-003	-1.4862508E-003	0
5.085008084552217E+003	9.3894964E-003	-1.4597613E-003	0
5.095008084431145E+003	9.3513196E-003	-1.4631998E-003	0
5.105008084310073E+003	9.4658490E-003	-1.4695039E-003	0
5.115008084189001E+003	9.3704080E-003	-1.4640277E-003	0
5.125008084067929E+003	9.4085848E-003	-1.4623721E-003	0
5.135008083946857E+003	9.3513196E-003	-1.4499553E-003	0
5.145008083825785E+003	9.3513196E-003	-1.4542214E-003	0
5.155008083704714E+003	9.3704080E-003	-1.4246757E-003	0
5.165008083583642E+003	9.3131429E-003	-1.4291967E-003	0
5.175008083462570E+003	9.3704080E-003	-1.4419956E-003	0
5.185008083341498E+003	9.2749661E-003	-1.4407858E-003	0
5.195008083220426E+003	9.4085848E-003	-1.4339087E-003	0
5.205008083099354E+003	9.3704080E-003	-1.4258219E-003	0
5.215008082978282E+003	9.3322312E-003	-1.4265861E-003	0
5.225008082857210E+003	9.3894964E-003	-1.4305339E-003	0
5.235008082736138E+003	9.2940545E-003	-1.4361375E-003	0
5.245008082615066E+003	9.4276723E-003	-1.4162704E-003	0
5.255008082493994E+003	9.4467606E-003	-1.3981863E-003	0
5.265008082372922E+003	9.3131429E-003	-1.4146785E-003	0
5.275008082251850E+003	9.3704080E-003	-1.4039809E-003	0
5.285008082130778E+003	9.4085848E-003	-1.4199000E-003	0
5.295008082009706E+003	9.3513196E-003	-1.3900995E-003	0
5.305008081888634E+003	9.3131429E-003	-1.3972949E-003	0
5.315008081767563E+003	9.3322312E-003	-1.4088841E-003	0
5.325008081646491E+003	9.3704080E-003	-1.3924555E-003	0
5.335008081525419E+003	9.3513196E-003	-1.4010519E-003	0
5.345008081404347E+003	9.4085848E-003	-1.3869794E-003	0
5.355008081283275E+003	9.3894964E-003	-1.4028348E-003	0
5.365008081162203E+003	9.4276723E-003	-1.3876162E-003	0
5.375008081041131E+003	9.3704080E-003	-1.3883803E-003	0
5.385008080920059E+003	9.2177009E-003	-1.3823310E-003	0
5.395008080798987E+003	9.3513196E-003	-1.3799112E-003	0
5.405008080677915E+003	9.3704080E-003	-1.3693410E-003	0
5.415008080556843E+003	9.3131429E-003	-1.3809938E-003	0
5.425008080435771E+003	9.4085848E-003	-1.3986959E-003	0
5.435008080314699E+003	9.3704080E-003	-1.3890171E-003	0
5.445008080193627E+003	9.3894964E-003	-1.3767276E-003	0
5.455008080072555E+003	9.3322312E-003	-1.3613815E-003	0
5.465008079951484E+003	9.3131429E-003	-1.3571788E-003	0
5.475008079830412E+003	9.3322312E-003	-1.3442526E-003	0
5.485008079709340E+003	9.3894964E-003	-1.3452077E-003	0
5.495008079588268E+003	9.3704080E-003	-1.3466086E-003	0
5.505008079467196E+003	9.3894964E-003	-1.3616999E-003	0
5.515008079346124E+003	9.2367893E-003	-1.3381396E-003	0
5.525008079225052E+003	9.2558777E-003	-1.3488373E-003	0
5.535008079103980E+003	9.2940545E-003	-1.3418329E-003	0
5.545008078982908E+003	9.2749661E-003	-1.3373756E-003	0
5.555008078861836E+003	9.3513196E-003	-1.3515117E-003	0
5.565008078740764E+003	9.3322312E-003	-1.3415145E-003	0
5.575008078619692E+003	9.2177009E-003	-1.3194826E-003	0
5.585008078498620E+003	9.3131429E-003	-1.3224116E-003	0
5.595008078377548E+003	9.3322312E-003	-1.2811493E-003	0
5.605008078256476E+003	9.3894964E-003	-1.3129239E-003	0
5.615008078135405E+003	9.2558777E-003	-1.3080208E-003	0
5.625008078014333E+003	9.3894964E-003	-1.3109499E-003	0
5.635008077893261E+003	9.3704080E-003	-1.2953492E-003	0
5.645008077772189E+003	9.2940545E-003	-1.2982783E-003	0
5.655008077651117E+003	9.3894964E-003	-1.3015259E-003	0
5.665008077530045E+003	9.3894964E-003	-1.2967502E-003	0
5.675008077408973E+003	9.2749661E-003	-1.3094853E-003	0
5.685008077287901E+003	9.3704080E-003	-1.2623012E-003	0
5.695008077166829E+003	9.3131429E-003	-1.2923564E-003	0
5.705008077045757E+003	9.3131429E-003	-1.2862436E-003	0
5.715008076924685E+003	9.2940545E-003	-1.3053465E-003	0
5.725008076803613E+003	9.2940545E-003	-1.2953492E-003	0
5.735008076682541E+003	9.4085848E-003	-1.2680958E-003	0
5.745008076561469E+003	9.4658490E-003	-1.3040092E-003	0
5.755008076440397E+003	9.4085848E-003	-1.2775835E-003	0
5.765008076319325E+003	9.3704080E-003	-1.2875807E-003	0
5.775008076198254E+003	9.4276723E-003	-1.2708975E-003	0
5.785008076077182E+003	9.3894964E-003	-1.3998420E-003	0
5.795008075956110E+003	9.3894964E-003	-1.3541860E-003	0
5.805008075835038E+003	9.2940545E-003	-1.2671407E-003	0
5.815008075713966E+003	9.4085848E-003	-1.2737629E-003	0
5.825008075592894E+003	9.2749661E-003	-1.3124145E-003	0
5.835008075471822E+003	9.3131429E-003	-1.2819772E-003	0
5.845008075350750E+003	9.3513196E-003	-1.2707065E-003	0
5.855008075229678E+003	9.3513196E-003	-1.2766921E-003	0
5.865008075108606E+003	9.4085848E-003	-1.2570162E-003	0
5.875008074987534E+003	9.2749661E-003	-1.2551695E-003	0
5.885008074866462E+003	9.3513196E-003	-1.2457455E-003	0
5.895008074745390E+003	9.2940545E-003	-1.2624922E-003	0
5.905008074624318E+003	9.3322312E-003	-1.2389320E-003	0
5.915008074503246E+003	9.3894964E-003	-1.2403330E-003	0
5.925008074382175E+003	9.3704080E-003	-1.2577802E-003	0
5.935008074261103E+003	9.3704080E-003	-1.2293169E-003	0
5.945008074140031E+003	9.2940545E-003	-1.2307178E-003	0
5.955008074018959E+003	9.3131429E-003	-1.2158812E-003	0
5.965008073897887E+003	9.2367893E-003	-1.2013630E-003	0
5.975008073776815E+003	9.3513196E-003	-1.2107871E-003	0
5.985008073655743E+003	9.3513196E-003	-1.2059477E-003	0
5.995008073534671E+003	9.3513196E-003	-1.2021909E-003	0
6.005008073413599E+003	9.3322312E-003	-1.2244775E-003	0
6.015008073292527E+003	9.2749661E-003	-1.2278524E-003	0
6.025008073171455E+003	9.3704080E-003	-1.2275977E-003	0
6.035008073050383E+003	9.2749661E-003	-1.2091952E-003	0
6.045008072929311E+003	9.3704080E-003	-1.2037191E-003	0
6.055008072808239E+003	9.2940545E-003	-1.1905381E-003	0
6.065008072687167E+003	9.3704080E-003	-1.1848072E-003	0
6.075008072566096E+003	9.3513196E-003	-1.2327555E-003	0
6.085008072445024E+003	9.3894964E-003	-1.1840431E-003	0
6.095008072323952E+003	9.3131429E-003	-1.1953139E-003	0
6.105008072202880E+003	9.4276723E-003	-1.1994528E-003	0
6.115008072081808E+003	9.3704080E-003	-1.1854440E-003	0
6.125008071960736E+003	9.3513196E-003	-1.1773570E-003	0
6.135008071839664E+003	9.3322312E-003	-1.1984976E-003	0
6.145008071718592E+003	9.2749661E-003	-1.1881184E-003	0
6.155008071597520E+003	9.1795251E-003	-1.1906017E-003	0
6.165008071476448E+003	9.3513196E-003	-1.1747463E-003	0
6.175008071355376E+003	9.2940545E-003	-1.1756378E-003	0
6.185008071234304E+003	9.3131429E-003	-1.1822602E-003	0
6.195008071113232E+003	9.4085848E-003	-1.1651949E-003	0
6.205008070992160E+003	9.3894964E-003	-1.1838521E-003	0
6.215008070871088E+003	9.2749661E-003	-1.1687608E-003	0
6.225008070750016E+003	9.2940545E-003	-1.1935309E-003	0
6.235008070628945E+003	9.4467606E-003	-1.1716263E-003	0
6.245008070507873E+003	9.3513196E-003	-1.1487664E-003	0
6.255008070386801E+003	9.3322312E-003	-1.1572991E-003	0
6.265008070265729E+003	9.2558777E-003	-1.1472382E-003	0
6.275008070144657E+003	9.3704080E-003	-1.1632845E-003	0
6.285008070023585E+003	9.3513196E-003	-1.1477476E-003	0
6.295008069902513E+003	9.2558777E-003	-1.1401701E-003	0
6.305008069781441E+003	9.3513196E-003	-1.1352671E-003	0
6.315008069660369E+003	9.2177009E-003	-1.1208762E-003	0
6.325008069539297E+003	9.2749661E-003	-1.1266707E-003	0
6.335008069418225E+003	9.2749661E-003	-1.1413799E-003	0
6.345008069297153E+003	9.4085848E-003	-1.1394060E-003	0
6.355008069176081E+003	9.3131429E-003	-1.1506131E-003	0
6.365008069055009E+003	9.4276723E-003	-1.2022546E-003	0
6.375008068933937E+003	9.4085848E-003	-1.2240955E-003	0
6.385008068812866E+003	9.3894964E-003	-1.1808592E-003	0
6.395008068691794E+003	9.2940545E-003	-1.1661501E-003	0
6.405008068570722E+003	9.2940545E-003	-1.1300456E-003	0
6.415008068449650E+003	9.3704080E-003	-1.1213220E-003	0
6.425008068328578E+003	9.3513196E-003	-1.1355218E-003	0
6.435008068207506E+003	9.2749661E-003	-1.1205579E-003	0
6.445008068086434E+003	9.3704080E-003	-1.1241237E-003	0
6.455008067965362E+003	9.3513196E-003	-1.1339298E-003	0
6.465008067844290E+003	9.4085848E-003	-1.1186476E-003	0
6.475008067723218E+003	9.3322312E-003	-1.1176288E-003	0
6.485008067602146E+003	9.3513196E-003	-1.1340572E-003	0
6.495008067481074E+003	9.3322312E-003	-1.1090324E-003	0
6.505008067360002E+003	9.3131429E-003	-1.1092871E-003	0
6.515008067238930E+003	9.3704080E-003	-1.1052755E-003	0
6.525008067117858E+003	9.3322312E-003	-1.1082047E-003	0
6.535008066996787E+003	9.3322312E-003	-1.1003725E-003	0
6.545008066875715E+003	9.2558777E-003	-1.0945142E-003	0
6.555008066754643E+003	9.2940545E-003	-1.0930498E-003	0
6.565008066633571E+003	9.3322312E-003	-1.0889744E-003	0
6.575008066512499E+003	9.3131429E-003	-1.0981438E-003	0
6.585008066391427E+003	9.2940545E-003	-1.0938138E-003	0
6.595008066270355E+003	9.4467606E-003	-1.1263525E-003	0
6.605008066149283E+003	9.2558777E-003	-1.1257794E-003	0
6.615008066028211E+003	9.3704080E-003	-1.0774491E-003	0
6.625008065907139E+003	9.4085848E-003	-1.1004361E-003	0
6.635008065786067E+003	9.2940545E-003	-1.0773216E-003	0
6.645008065664995E+003	9.3513196E-003	-1.0699352E-003	0
6.655008065543923E+003	9.4276723E-003	-1.0768123E-003	0
6.665008065422851E+003	9.4658490E-003	-1.0563085E-003	0
6.675008065301779E+003	9.3513196E-003	-1.0710176E-003	0
6.685008065180707E+003	9.3322312E-003	-1.0851538E-003	0
6.695008065059636E+003	9.3322312E-003	-1.0803144E-003	0
6.705008064938564E+003	9.3322312E-003	-1.0673245E-003	0
6.715008064817492E+003	9.3513196E-003	-1.0768760E-003	0
6.725008064696420E+003	9.3894964E-003	-1.0387338E-003	0
6.735008064575348E+003	9.4085848E-003	-1.0943869E-003	0
6.745008064454276E+003	9.2558777E-003	-1.0914578E-003	0
6.755008064333204E+003	9.3513196E-003	-1.0751567E-003	0
6.765008064212132E+003	9.3894964E-003	-1.0763028E-003	0
6.775008064091060E+003	9.4085848E-003	-1.0743926E-003	0
6.785008063969988E+003	9.3322312E-003	-1.0523605E-003	0
6.795008063848916E+003	9.4467606E-003	-1.0724823E-003	0
6.805008063727844E+003	9.3513196E-003	-1.0507685E-003	0
6.815008063606772E+003	9.3322312E-003	-1.0535704E-003	0
6.825008063485700E+003	9.4085848E-003	-1.0259348E-003	0
6.835008063364628E+003	9.3131429E-003	-1.0365051E-003	0
6.845008063243557E+003	9.4085848E-003	-1.0430638E-003	0
6.855008063122485E+003	9.2940545E-003	-1.0352316E-003	0
6.865008063001413E+003	9.3704080E-003	-1.0417902E-003	0
6.875008062880341E+003	9.3131429E-003	-1.0515965E-003	0
6.885008062759269E+003	9.2940545E-003	-1.0356773E-003	0
6.895008062638197E+003	9.3131429E-003	-1.0398800E-003	0
6.905008062517125E+003	9.3704080E-003	-1.0396253E-003	0
6.915008062396053E+003	9.4085848E-003	-1.0116714E-003	0
6.925008062274981E+003	9.3131429E-003	-1.0306468E-003	0
6.935008062153909E+003	9.3322312E-003	-1.0153645E-003	0
6.945008062032837E+003	9.3131429E-003	-1.0359320E-003	0
6.955008061911765E+003	9.3704080E-003	-1.0389248E-003	0
6.965008061790693E+003	9.2940545E-003	-1.0242793E-003	0
6.975008061669621E+003	9.2940545E-003	-1.2849700E-003	0
6.985008061548549E+003	9.3322312E-003	-1.1906017E-003	0
6.995008061427478E+003	9.3322312E-003	-1.2105324E-003	0
7.005008061306406E+003	9.3322312E-003	-1.1565350E-003	0
7.015008061185334E+003	9.3322312E-003	-1.1781212E-003	0
7.025008061064262E+003	9.4467606E-003	-1.1459009E-003	0
7.035008060943190E+003	9.4085848E-003	-1.0929224E-003	0
7.045008060822118E+003	9.3513196E-003	-1.0529336E-003	0
7.055008060701046E+003	9.2940545E-003	-1.0328119E-003	0
7.065008060579974E+003	9.2558777E-003	-1.0289276E-003	0
7.075008060458902E+003	9.3704080E-003	-1.0317931E-003	0
7.085008060337830E+003	9.3131429E-003	-1.0008464E-003	0
7.095008060216758E+003	9.3894964E-003	-1.0001459E-003	0
7.105008060095686E+003	9.3513196E-003	-9.9989120E-004	0
7.115008059974614E+003	9.2558777E-003	-9.9174073E-004	0
7.125008059853542E+003	9.3322312E-003	-9.8683767E-004	0
7.135008059732470E+003	9.3131429E-003	-9.9466986E-004	0
7.145008059611398E+003	9.3322312E-003	-1.0003370E-003	0
7.155008059490327E+003	9.3322312E-003	-1.0036482E-003	0
7.165008059369255E+003	9.3131429E-003	-9.8823849E-004	0
7.175008059248183E+003	9.3322312E-003	-9.6486928E-004	0
7.185008059127111E+003	9.4085848E-003	-9.6435979E-004	0
7.195008059006039E+003	9.3704080E-003	-9.5315283E-004	0
7.205008058884967E+003	9.4276723E-003	-9.8308071E-004	0
7.215008058763895E+003	9.4276723E-003	-9.6798938E-004	0
7.225008058642823E+003	9.3131429E-003	-9.6576073E-004	0
7.235008058521751E+003	9.3513196E-003	-9.5328019E-004	0
7.245008058400679E+003	9.2940545E-003	-9.6970866E-004	0
7.255008058279607E+003	9.2558777E-003	-9.6353213E-004	0
7.265008058158535E+003	9.3894964E-003	-9.6970866E-004	0
7.275008058037463E+003	9.3513196E-003	-9.7231945E-004	0
7.285008057916391E+003	9.2367893E-003	-9.5156085E-004	0
7.295008057795319E+003	9.4276723E-003	-9.8053378E-004	0
7.305008057674248E+003	9.3513196E-003	-9.6748001E-004	0
7.315008057553176E+003	9.2558777E-003	-9.7556692E-004	0
7.325008057432104E+003	9.3131429E-003	-9.6130336E-004	0
7.335008057311032E+003	9.2749661E-003	-9.6219493E-004	0
7.345008057189960E+003	9.3513196E-003	-9.4920496E-004	0
7.355008057068888E+003	9.3513196E-003	-9.3061145E-004	0
7.365008056947816E+003	9.3513196E-003	-9.4710366E-004	0
7.375008056826744E+003	9.3513196E-003	-9.5913844E-004	0
7.385008056705672E+003	9.3513196E-003	-9.4175484E-004	0
7.395008056584600E+003	9.4276723E-003	-9.3659706E-004	0
7.405008056463528E+003	9.3131429E-003	-9.4576640E-004	0
7.415008056342456E+003	9.3513196E-003	-9.4290101E-004	0
7.425008056221384E+003	9.3894964E-003	-9.2863740E-004	0
7.435008056100312E+003	9.3322312E-003	-9.1902236E-004	0
7.445008055979240E+003	9.2177009E-003	-9.4181841E-004	0
7.455008055858169E+003	9.2177009E-003	-9.4563898E-004	0
7.465008055737097E+003	9.3131429E-003	-9.3799783E-004	0
7.475008055616025E+003	9.3131429E-003	-9.3634229E-004	0
7.485008055494953E+003	9.3322312E-003	-9.1284578E-004	0
7.495008055373881E+003	9.4658490E-003	-9.3532342E-004	0
7.505008055252809E+003	9.4276723E-003	-9.1723941E-004	0
7.515008055131737E+003	9.2940545E-003	-9.1042608E-004	0
7.525008055010665E+003	9.2940545E-003	-9.0698752E-004	0
7.535008054889593E+003	9.3513196E-003	-9.0202078E-004	0
7.545008054768521E+003	9.4085848E-003	-9.3481410E-004	0
7.555008054647449E+003	9.3322312E-003	-9.1138127E-004	0
7.565008054526377E+003	9.3513196E-003	-9.3538716E-004	0
7.575008054405305E+003	9.3131429E-003	-9.3233067E-004	0
7.585008054284233E+003	9.3513196E-003	-9.1864029E-004	0
7.595008054163161E+003	9.4276723E-003	-8.9246937E-004	0
7.605008054042090E+003	9.2558777E-003	-9.0246648E-004	0
7.615008053921018E+003	9.3322312E-003	-8.9979207E-004	0
7.625008053799946E+003	9.3322312E-003	-8.9597149E-004	0
7.635008053678874E+003	9.4658490E-003	-8.8724791E-004	0
7.645008053557802E+003	9.3131429E-003	-8.9679938E-004	0
7.655008053436730E+003	9.3704080E-003	-8.7858789E-004	0
7.665008053315658E+003	9.2940545E-003	-9.0112927E-004	0
7.675008053194586E+003	9.3322312E-003	-8.9266035E-004	0
7.685008053073514E+003	9.3513196E-003	-9.0603245E-004	0
7.695008052952442E+003	9.3322312E-003	-9.1246370E-004	0
7.705008052831370E+003	9.4276723E-003	-8.8253588E-004	0
7.715008052710298E+003	9.3704080E-003	-8.8164432E-004	0
7.725008052589226E+003	9.4276723E-003	-9.0959831E-004	0
7.735008052468154E+003	9.3322312E-003	-8.8680210E-004	0
7.745008052347082E+003	9.3322312E-003	-8.7202928E-004	0
7.755008052226010E+003	9.3513196E-003	-8.9775445E-004	0
7.765008052104939E+003	9.3131429E-003	-8.8107126E-004	0
7.775008051983867E+003	9.2749661E-003	-8.8591070E-004	0
7.785008051862795E+003	9.3513196E-003	-8.8285428E-004	0
7.795008051741723E+003	9.3704080E-003	-8.6005812E-004	0
7.805008051620651E+003	9.3513196E-003	-9.0418576E-004	0
7.815008051499579E+003	9.2940545E-003	-8.7413064E-004	0
7.825008051378507E+003	9.3513196E-003	-8.8603795E-004	0
7.835008051257435E+003	9.4467606E-003	-8.6165004E-004	0
7.845008051136363E+003	9.4085848E-003	-8.7546778E-004	0
7.855008051015291E+003	9.3894964E-003	-8.7139249E-004	0
7.865008050894219E+003	9.3131429E-003	-8.7279337E-004	0
7.875008050773147E+003	9.3131429E-003	-1.0039666E-003	0
7.885008050652075E+003	9.4085848E-003	-1.1530328E-003	0
7.895008050531003E+003	9.4085848E-003	-1.0985895E-003	0
7.905008050409931E+003	9.2940545E-003	-1.0181664E-003	0
7.915008050288860E+003	9.2940545E-003	-1.0003370E-003	0
7.925008050167788E+003	9.3894964E-003	-9.0068363E-004	0
7.935008050046716E+003	9.2940545E-003	-8.9584419E-004	0
7.945008049925644E+003	9.3131429E-003	-9.2297030E-004	0
7.955008049804572E+003	9.2367893E-003	-8.8037085E-004	0
7.965008049683500E+003	9.3131429E-003	-8.7712338E-004	0
7.975008049562428E+003	9.4467606E-003	-8.5732003E-004	0
7.985008049441356E+003	9.4467606E-003	-8.5891195E-004	0
7.995008049320284E+003	9.3131429E-003	-8.7578612E-004	0
8.005008049199212E+003	9.4085848E-003	-8.7756908E-004	0
8.015008049078140E+003	9.3894964E-003	-8.5795677E-004	0
8.025008048957068E+003	9.4276723E-003	-8.6585269E-004	0
8.035008048835996E+003	9.2558777E-003	-8.5305376E-004	0
8.045008048714924E+003	9.3894964E-003	-8.5101608E-004	0
8.055008048593852E+003	9.4276723E-003	-8.5490028E-004	0
8.065008048472781E+003	9.3513196E-003	-8.6056755E-004	0
8.075008048351709E+003	9.4085848E-003	-8.5961242E-004	0
8.085008048230637E+003	9.3894964E-003	-8.3796243E-004	0
8.095008048109565E+003	9.3894964E-003	-8.3719834E-004	0
8.105008047988493E+003	9.2749661E-003	-8.4388431E-004	0
8.115008047867421E+003	9.3513196E-003	-8.3573384E-004	0
8.125008047746349E+003	9.3704080E-003	-8.2892034E-004	0
8.135008047625277E+003	9.3322312E-003	-8.2630967E-004	0
8.145008047504205E+003	9.4085848E-003	-8.2892034E-004	0
8.155008047383133E+003	9.4467606E-003	-8.3777145E-004	0
8.165008047262061E+003	9.3322312E-003	-8.3974539E-004	0
8.175008047140989E+003	9.4276723E-003	-8.3815341E-004	0
8.185008047019917E+003	9.3131429E-003	-8.4171927E-004	0
8.195008046898831E+003	9.4085848E-003	-8.2026049E-004	0
8.205008046777759E+003	9.3704080E-003	-8.4076420E-004	0
8.215008046656687E+003	9.3513196E-003	-8.2745589E-004	0
8.225008046535615E+003	9.3513196E-003	-8.2427205E-004	0
8.235008046414543E+003	9.3322312E-003	-8.1822276E-004	0
8.245008046293471E+003	9.4085848E-003	-8.3325041E-004	0
8.255008046172399E+003	9.3131429E-003	-8.3496969E-004	0
8.265008046051327E+003	9.4658490E-003	-8.1446586E-004	0
8.275008045930255E+003	9.4085848E-003	-8.2064257E-004	0
8.285008045809183E+003	9.2749661E-003	-8.2006940E-004	0
8.295008045688111E+003	9.2940545E-003	-8.0682477E-004	0
8.305008045567040E+003	9.2177009E-003	-8.2490878E-004	0
8.315008045445968E+003	9.2940545E-003	-8.3477865E-004	0
8.325008045324896E+003	9.4085848E-003	-8.0994488E-004	0
8.335008045203824E+003	9.4658490E-003	-7.9905626E-004	0
8.345008045082752E+003	9.3322312E-003	-8.1058161E-004	0
8.355008044961680E+003	9.2749661E-003	-8.1573939E-004	0
8.365008044840608E+003	9.3704080E-003	-7.9428055E-004	0
8.375008044719536E+003	9.3704080E-003	-8.0905337E-004	0
8.385008044598464E+003	9.4085848E-003	-7.9778268E-004	0
8.395008044477392E+003	9.2558777E-003	-8.0580590E-004	0
8.405008044356320E+003	9.4276723E-003	-7.9599977E-004	0
8.415008044235248E+003	9.3704080E-003	-8.1000855E-004	0
8.425008044114176E+003	9.3704080E-003	-7.8326452E-004	0
8.435008043993104E+003	9.3894964E-003	-7.8810396E-004	0
8.445008043872032E+003	9.4276723E-003	-7.9975673E-004	0
8.455008043750961E+003	9.3894964E-003	-7.9211552E-004	0
8.465008043629889E+003	9.2749661E-003	-7.8867702E-004	0
8.475008043508817E+003	9.3704080E-003	-7.9733704E-004	0
8.485008043387745E+003	9.2749661E-003	-7.9886528E-004	0
8.495008043266673E+003	9.2177009E-003	-7.6142355E-004	0
8.505008043145601E+003	9.3131429E-003	-7.7428616E-004	0
8.515008043024529E+003	9.3513196E-003	-8.0236740E-004	0
8.525008042903457E+003	9.2749661E-003	-7.7874347E-004	0
8.535008042782385E+003	9.4467606E-003	-7.6352491E-004	0
8.545008042661313E+003	9.3131429E-003	-7.8937737E-004	0
8.555008042540241E+003	9.2940545E-003	-7.9593610E-004	0
8.565008042419169E+003	9.3704080E-003	-7.7422248E-004	0
8.575008042298097E+003	9.2558777E-003	-7.8167260E-004	0
8.585008042177025E+003	9.2558777E-003	-7.7358581E-004	0
8.595008042055953E+003	9.4276723E-003	-7.4416731E-004	0
8.605008041934881E+003	9.2749661E-003	-7.8995049E-004	0
8.615008041813810E+003	9.3894964E-003	-7.8460167E-004	0
8.625008041692738E+003	9.2940545E-003	-7.7778834E-004	0
8.635008041571666E+003	9.3131429E-003	-7.6689979E-004	0
8.645008041450594E+003	9.4467606E-003	-7.8409229E-004	0
8.655008041329522E+003	9.4467606E-003	-7.8090851E-004	0
8.665008041208450E+003	9.1986125E-003	-7.5607473E-004	0
8.675008041087378E+003	9.2749661E-003	-7.8033545E-004	0
8.685008040966306E+003	9.4085848E-003	-7.7148445E-004	0
8.695008040845234E+003	9.3131429E-003	-7.4181124E-004	0
8.705008040724162E+003	9.4467606E-003	-7.7530503E-004	0
8.715008040603090E+003	9.3894964E-003	-7.8867702E-004	0
8.725008040482018E+003	9.3322312E-003	-8.3611591E-004	0
8.735008040360946E+003	9.3704080E-003	-7.7492296E-004	0
8.745008040239874E+003	9.3513196E-003	-7.5760297E-004	0
8.755008040118802E+003	9.2558777E-003	-7.7097502E-004	0
8.765008039997731E+003	9.2940545E-003	-7.5575634E-004	0
8.775008039876659E+003	9.2940545E-003	-7.6842797E-004	0
8.785008039755587E+003	9.4276723E-003	-7.6237874E-004	0
8.795008039634515E+003	9.3131429E-003	-7.5652049E-004	0
8.805008039513443E+003	9.3322312E-003	-7.6842797E-004	0
8.815008039392371E+003	9.3894964E-003	-7.2824827E-004	0
8.825008039271299E+003	9.4085848E-003	-7.5715728E-004	0
8.835008039150227E+003	9.3894964E-003	-7.4919779E-004	0
8.845008039029155E+003	9.3322312E-003	-7.3467952E-004	0
8.855008038908083E+003	9.3704080E-003	-7.7479566E-004	0
8.865008038787011E+003	9.3704080E-003	-7.3945528E-004	0
8.875008038665939E+003	9.3894964E-003	-7.4212969E-004	0
8.885008038544867E+003	9.4276723E-003	-7.3843647E-004	0
8.895008038423795E+003	9.2940545E-003	-7.3582568E-004	0
8.905008038302723E+003	9.2749661E-003	-7.5683888E-004	0
8.915008038181652E+003	9.3704080E-003	-7.4856100E-004	0
8.925008038060580E+003	9.3513196E-003	-7.3779968E-004	0
8.935008037939508E+003	9.3322312E-003	-7.5753930E-004	0
8.945008037818436E+003	9.2940545E-003	-7.3104998E-004	0
8.955008037697364E+003	9.4658490E-003	-7.5066235E-004	0
8.965008037576292E+003	9.3322312E-003	-7.4716005E-004	0
8.975008037455220E+003	9.3322312E-003	-7.2971283E-004	0
8.985008037334148E+003	9.4276723E-003	-7.2773889E-004	0
8.995008037213076E+003	9.3513196E-003	-7.5129903E-004	0
9.005008037092004E+003	9.3894964E-003	-7.2971283E-004	0
9.015008036970932E+003	9.4085848E-003	-7.2990381E-004	0
9.025008036849860E+003	9.4658490E-003	-7.3417014E-004	0
9.035008036728788E+003	9.3322312E-003	-7.5957691E-004	0
9.045008036607716E+003	9.3131429E-003	-7.4741477E-004	0
9.055008036486644E+003	9.3513196E-003	-7.1704120E-004	0
9.065008036365572E+003	9.2749661E-003	-7.3830911E-004	0
9.075008036244501E+003	9.3322312E-003	-7.3913689E-004	0
9.085008036123429E+003	9.2177009E-003	-7.3378807E-004	0
9.095008036002357E+003	9.3513196E-003	-7.1653182E-004	0
9.105008035881285E+003	9.2749661E-003	-7.2130753E-004	0
9.115008035760213E+003	9.3513196E-003	-7.2277209E-004	0
9.125008035639141E+003	9.4276723E-003	-7.3646248E-004	0
9.135008035518069E+003	9.3131429E-003	-7.4104720E-004	0
9.145008035396997E+003	9.3894964E-003	-7.3620776E-004	0
9.155008035275925E+003	9.3322312E-003	-7.0978212E-004	0
9.165008035154853E+003	9.3322312E-003	-7.2474609E-004	0
9.175008035033781E+003	9.3513196E-003	-7.1895152E-004	0
9.185008034912709E+003	9.4085848E-003	-7.1946089E-004	0
9.195008034791637E+003	9.3131429E-003	-7.1379379E-004	0
9.205008034670565E+003	9.3513196E-003	-7.2264473E-004	0
9.215008034549493E+003	9.2940545E-003	-6.9392676E-004	0
9.225008034428422E+003	9.3894964E-003	-7.3327869E-004	0
9.235008034307350E+003	9.3894964E-003	-7.1487622E-004	0
9.245008034186278E+003	9.3131429E-003	-7.2105281E-004	0
9.255008034065206E+003	9.2940545E-003	-7.2340883E-004	0
9.265008033944134E+003	9.4085848E-003	-6.9921184E-004	0
9.275008033823062E+003	9.3513196E-003	-2.2867252E-003	0
9.285008033701990E+003	9.3894964E-003	-9.4703992E-004	0
9.295008033580918E+003	9.3704080E-003	-8.8298158E-004	0
9.305008033459846E+003	9.3513196E-003	-7.3799072E-004	0
9.315008033338774E+003	9.4085848E-003	-7.1856944E-004	0
9.325008033217702E+003	9.4085848E-003	-7.1315700E-004	0
9.335008033096630E+003	9.3322312E-003	-7.0812652E-004	0
9.345008032975558E+003	9.4276723E-003	-7.2207168E-004	0
9.355008032854486E+003	9.3894964E-003	-7.2703842E-004	0
9.365008032733414E+003	9.3131429E-003	-7.0920907E-004	0
9.375008032612343E+003	9.3131429E-003	-6.9653743E-004	0
9.385008032491271E+003	9.3894964E-003	-7.2570116E-004	0
9.395008032370199E+003	9.3704080E-003	-6.8634929E-004	0
9.405008032249127E+003	9.4085848E-003	-7.0608885E-004	0
9.415008032128055E+003	9.3131429E-003	-7.0729875E-004	0
9.425008032006983E+003	9.4276723E-003	-6.9991231E-004	0
9.435008031885911E+003	9.3894964E-003	-6.9927552E-004	0
9.445008031764839E+003	9.3704080E-003	-6.8870530E-004	0
9.455008031643767E+003	9.3131429E-003	-6.8539410E-004	0
9.465008031522695E+003	9.3131429E-003	-7.0182263E-004	0
9.475008031401623E+003	9.3131429E-003	-6.8972411E-004	0
9.485008031280551E+003	9.3322312E-003	-7.0112216E-004	0
9.495008031159479E+003	9.4467606E-003	-7.0774450E-004	0
9.505008031038407E+003	9.3322312E-003	-6.9469080E-004	0
9.515008030917335E+003	9.3894964E-003	-6.7482382E-004	0
9.525008030796263E+003	9.3513196E-003	-6.8036374E-004	0
9.535008030675192E+003	9.3513196E-003	-6.8386586E-004	0
9.545008030554120E+003	9.4467606E-003	-6.9532759E-004	0
9.555008030433048E+003	9.3704080E-003	-6.8794115E-004	0
9.565008030311976E+003	9.2940545E-003	-6.8138249E-004	0
9.575008030190904E+003	9.4085848E-003	-7.1111933E-004	0
9.585008030069832E+003	9.4276723E-003	-6.8443897E-004	0
9.595008029948760E+003	9.3513196E-003	-6.8622187E-004	0
9.605008029827688E+003	9.3322312E-003	-6.6196121E-004	0
9.615008029706616E+003	9.4849374E-003	-6.9271686E-004	0
9.625008029585544E+003	9.3322312E-003	-6.7284988E-004	0
9.635008029464472E+003	9.3131429E-003	-6.6699169E-004	0
9.645008029343400E+003	9.2940545E-003	-6.9946662E-004	0
9.655008029222328E+003	9.3131429E-003	-6.8972411E-004	0
9.665008029101256E+003	9.3513196E-003	-6.7335926E-004	0
9.675008028980184E+003	9.4467606E-003	-6.7348668E-004	0
9.685008028859113E+003	9.3894964E-003	-6.6259800E-004	0
9.695008028738041E+003	9.4467606E-003	-6.6030567E-004	0
9.705008028616969E+003	9.3894964E-003	-6.5533892E-004	0
9.715008028495897E+003	9.3322312E-003	-6.4967171E-004	0
9.725008028374825E+003	9.4085848E-003	-6.9048826E-004	0
9.735008028253753E+003	9.4085848E-003	-6.6011463E-004	0
9.745008028132681E+003	9.3513196E-003	-6.9099764E-004	0
9.755008028011609E+003	9.2749661E-003	-6.6527241E-004	0
9.765008027890537E+003	9.3894964E-003	-6.7565159E-004	0
9.775008027769465E+003	9.3704080E-003	-6.5559364E-004	0
9.785008027648393E+003	9.3894964E-003	-6.6667330E-004	0
9.795008027527321E+003	9.3894964E-003	-6.7781663E-004	0
9.805008027406249E+003	9.3894964E-003	-6.6743739E-004	0
9.815008027285177E+003	9.4467606E-003	-6.5724918E-004	0
9.825008027164105E+003	9.4085848E-003	-6.5508415E-004	0
9.835008027043034E+003	9.3704080E-003	-6.4285839E-004	0
9.845008026921962E+003	9.2749661E-003	-6.5922318E-004	0
9.855008026800890E+003	9.3894964E-003	-6.5190037E-004	0
9.865008026679818E+003	9.3322312E-003	-6.5820431E-004	0
9.875008026558746E+003	9.3894964E-003	-6.6578184E-004	0
9.885008026437674E+003	9.3704080E-003	-6.5361970E-004	0
9.895008026316602E+003	9.4085848E-003	-6.6718273E-004	0
9.905008026195530E+003	9.3513196E-003	-6.6514505E-004	0
9.915008026074458E+003	9.4085848E-003	-6.5935048E-004	0
9.925008025953386E+003	9.3322312E-003	-6.4680626E-004	0
9.935008025832314E+003	9.3704080E-003	-6.3407101E-004	0
9.945008025711242E+003	9.2558777E-003	-6.4113905E-004	0
9.955008025590170E+003	9.3894964E-003	-6.5769494E-004	0
9.965008025469098E+003	9.3513196E-003	-6.3795527E-004	0
9.975008025348026E+003	9.3131429E-003	-6.4992643E-004	0
9.985008025226954E+003	9.4467606E-003	-6.5221876E-004	0
9.995008025105883E+003	9.3894964E-003	-6.6183391E-004	0
1.000500802498481E+004	9.3704080E-003	-6.5584830E-004	0
1.001500802486374E+004	9.3894964E-003	-6.4292201E-004	0
1.002500802474267E+004	9.3131429E-003	-6.4018398E-004	0
1.003500802462159E+004	9.3513196E-003	-6.2585680E-004	0
1.004500802450052E+004	9.4085848E-003	-6.4757041E-004	0
1.005500802437945E+004	9.3894964E-003	-6.2636618E-004	0
1.006500802425838E+004	9.3322312E-003	-6.4572378E-004	0
1.007500802413731E+004	9.2367893E-003	-6.4706092E-004	0
1.008500802401624E+004	9.3704080E-003	-6.3801894E-004	0
1.009500802389516E+004	9.3131429E-003	-6.2114478E-004	0
1.010500802377409E+004	9.2177009E-003	-6.4304937E-004	0
1.011500802365302E+004	9.3131429E-003	-6.3649070E-004	0
1.012500802353195E+004	9.3704080E-003	-6.0930097E-004	0
1.013500802341088E+004	9.3704080E-003	-6.3477148E-004	0
1.014500802328980E+004	9.3131429E-003	-6.0815481E-004	0
1.015500802316873E+004	9.3131429E-003	-6.4362242E-004	0
1.016500802304766E+004	9.4085848E-003	-6.2413752E-004	0
1.017500802292659E+004	9.4085848E-003	-6.3649070E-004	0
1.018500802280552E+004	9.3513196E-003	-6.1503187E-004	0
1.019500802268444E+004	9.3131429E-003	-6.2993210E-004	0
1.020500802256337E+004	9.3131429E-003	-6.3101453E-004	0
1.021500802244230E+004	9.3513196E-003	-6.1152963E-004	0
1.022500802232123E+004	9.3513196E-003	-6.4413185E-004	0
1.023500802220016E+004	9.3131429E-003	-6.2713027E-004	0
1.024500802207908E+004	9.4849374E-003	-6.2260928E-004	0
1.025500802195801E+004	9.3704080E-003	-6.1955280E-004	0
1.026500802183694E+004	9.3704080E-003	-6.1585964E-004	0
1.027500802171587E+004	9.2558777E-003	-1.2648484E-003	0
1.028500802159480E+004	9.3894964E-003	-7.5448293E-004	0
1.029500802147372E+004	9.3322312E-003	-6.5419276E-004	0
1.030500802135265E+004	9.3894964E-003	-6.1776995E-004	0
1.031500802123158E+004	9.3513196E-003	-6.2076276E-004	0
1.032500802111051E+004	9.4467606E-003	-6.7444181E-004	0
1.033500802098944E+004	9.2940545E-003	-6.4349518E-004	0
1.034500802086836E+004	9.4085848E-003	-6.1917078E-004	0
1.035500802074729E+004	9.2558777E-003	-6.2369183E-004	0
1.036500802062622E+004	9.3894964E-003	-6.2095374E-004	0
1.037500802050515E+004	9.2558777E-003	-6.3591765E-004	0
1.038500802038408E+004	9.2940545E-003	-6.3757319E-004	0
1.039500802026301E+004	9.3513196E-003	-6.0407951E-004	0
1.040500802014193E+004	9.3894964E-003	-6.0611719E-004	0
1.041500802002086E+004	9.3322312E-003	-6.3623604E-004	0
1.042500801989979E+004	9.3894964E-003	-6.0688128E-004	0
1.043500801977872E+004	9.4276723E-003	-6.1076548E-004	0
1.044500801965765E+004	9.3131429E-003	-6.1108387E-004	0
1.045500801953657E+004	9.3513196E-003	-5.9962214E-004	0
1.046500801941550E+004	9.3513196E-003	-5.8650482E-004	0
1.047500801929443E+004	9.3513196E-003	-6.1471347E-004	0
1.048500801917336E+004	9.3322312E-003	-6.0216920E-004	0
1.049500801905229E+004	9.3131429E-003	-6.1598700E-004	0
1.050500801893121E+004	9.3894964E-003	-6.1363092E-004	0
1.051500801881014E+004	9.4467606E-003	-5.8765104E-004	0
1.052500801868907E+004	9.3894964E-003	-5.9573795E-004	0
1.053500801856800E+004	9.3704080E-003	-5.8274798E-004	0
1.054500801844693E+004	9.3131429E-003	-5.9287250E-004	0
1.055500801832585E+004	9.4658490E-003	-6.1114755E-004	0
1.056500801820478E+004	9.4658490E-003	-6.2375545E-004	0
1.057500801808371E+004	9.4085848E-003	-5.8650482E-004	0
1.058500801796264E+004	9.3513196E-003	-5.9420971E-004	0
1.059500801784157E+004	9.3513196E-003	-6.0102303E-004	0
1.060500801772049E+004	9.4276723E-003	-6.0427055E-004	0
1.061500801759942E+004	9.3894964E-003	-5.8504031E-004	0
1.062500801747835E+004	9.4085848E-003	-5.9541955E-004	0
1.063500801735728E+004	9.4276723E-003	-5.8905192E-004	0
1.064500801723621E+004	9.4467606E-003	-6.0930097E-004	0
1.065500801711513E+004	9.3894964E-003	-5.9249043E-004	0
1.066500801699406E+004	9.3322312E-003	-5.9822132E-004	0
1.067500801687299E+004	9.2940545E-003	-5.9771189E-004	0
1.068500801675192E+004	9.3513196E-003	-5.8796944E-004	0
1.069500801663085E+004	9.3894964E-003	-5.8669585E-004	0
1.070500801650978E+004	9.3894964E-003	-5.9885805E-004	0
1.071500801638870E+004	9.3894964E-003	-5.8293901E-004	0
1.072500801626763E+004	9.3894964E-003	-5.8860617E-004	0
1.073500801614656E+004	9.3131429E-003	-5.7911844E-004	0
1.074500801602549E+004	9.3704080E-003	-5.9592898E-004	0
1.075500801590442E+004	9.2940545E-003	-5.7376962E-004	0
1.076500801578334E+004	9.2558777E-003	-5.6918495E-004	0
1.077500801566227E+004	9.3513196E-003	-5.7255971E-004	0
1.078500801554120E+004	9.3704080E-003	-5.7599827E-004	0
1.079500801542013E+004	9.3513196E-003	-5.8109238E-004	0
1.080500801529906E+004	9.3513196E-003	-5.7338754E-004	0
1.081500801517798E+004	9.3513196E-003	-5.6383613E-004	0
1.082500801505691E+004	9.3322312E-003	-5.8682321E-004	0
1.083500801493584E+004	9.4276723E-003	-5.6600111E-004	0
1.084500801481477E+004	9.3894964E-003	-5.7816331E-004	0
1.085500801469370E+004	9.4658490E-003	-5.7676237E-004	0
1.086500801457262E+004	9.4276723E-003	-5.6867552E-004	0
1.087500801445155E+004	9.3704080E-003	-5.7848165E-004	0
1.088500801433048E+004	9.3894964E-003	-5.7822693E-004	0
1.089500801420941E+004	9.3704080E-003	-5.9873069E-004	0
1.090500801408834E+004	9.3322312E-003	-5.7930948E-004	0
1.091500801396726E+004	9.3322312E-003	-5.7154091E-004	0
1.092500801384619E+004	9.3704080E-003	-5.6803878E-004	0
1.093500801372512E+004	9.3513196E-003	-5.7020376E-004	0
1.094500801360405E+004	9.3322312E-003	-5.8504031E-004	0
1.095500801348298E+004	9.3322312E-003	-5.5772322E-004	0
1.096500801336190E+004	9.3513196E-003	-5.6886656E-004	0
1.097500801324083E+004	9.2558777E-003	-5.5078242E-004	0
1.098500801311976E+004	9.3704080E-003	-5.5976078E-004	0
1.099500801299869E+004	9.2940545E-003	-5.6409079E-004	0
1.100500801287762E+004	9.3513196E-003	-5.5778684E-004	0
1.101500801275655E+004	9.2940545E-003	-5.5594026E-004	0
1.102500801263547E+004	9.3513196E-003	-5.6988536E-004	0
1.103500801251440E+004	9.2940545E-003	-5.6211685E-004	0
1.104500801239333E+004	9.4085848E-003	-5.5377523E-004	0
1.105500801227226E+004	9.3131429E-003	-5.4919056E-004	0
1.106500801215119E+004	9.3894964E-003	-5.6186214E-004	0
1.107500801203011E+004	9.2940545E-003	-5.5562187E-004	0
1.108500801190904E+004	9.3894964E-003	-5.4957258E-004	0
1.109500801178797E+004	9.3131429E-003	-5.5103720E-004	0
1.110500801166690E+004	9.3894964E-003	-5.4594310E-004	0
1.111500801154583E+004	9.3513196E-003	-5.4091268E-004	0
1.112500801142475E+004	9.3513196E-003	-5.6810240E-004	0
1.113500801130368E+004	9.2940545E-003	-5.6861184E-004	0
1.114500801118261E+004	9.3131429E-003	-5.4390542E-004	0
1.115500801106154E+004	9.3131429E-003	-5.4925424E-004	0
1.116500801094047E+004	9.3131429E-003	-5.6167110E-004	0
1.117500801081939E+004	9.4658490E-003	-5.8427622E-004	0
1.118500801069832E+004	9.3894964E-003	-5.5231067E-004	0
1.119500801057725E+004	9.3513196E-003	-5.3225266E-004	0
1.120500801045618E+004	9.3704080E-003	-5.6065229E-004	0
1.121500801033511E+004	9.4085848E-003	-5.5301114E-004	0
1.122500801021403E+004	9.3131429E-003	-5.5925146E-004	0
1.123500801009296E+004	9.3513196E-003	-5.4581568E-004	0
1.124500800997189E+004	9.2749661E-003	-5.5855099E-004	0
1.125500800985082E+004	9.2940545E-003	-5.6835712E-004	0
1.126500800972975E+004	9.3131429E-003	-5.5644964E-004	0
1.127500800960867E+004	9.3513196E-003	-5.5447570E-004	0
1.128500800948760E+004	9.3322312E-003	-5.4301397E-004	0
1.129500800936653E+004	9.3704080E-003	-5.5676803E-004	0
1.130500800924546E+004	9.3322312E-003	-5.3378084E-004	0
1.131500800912439E+004	9.3513196E-003	-5.5689539E-004	0
1.132500800900332E+004	9.3131429E-003	-5.3174328E-004	0
1.133500800888224E+004	9.3322312E-003	-5.3658267E-004	0
1.134500800876117E+004	9.3513196E-003	-5.5976078E-004	0
1.135500800864010E+004	9.4085848E-003	-5.3791987E-004	0
1.136500800851903E+004	9.3513196E-003	-5.5313850E-004	0
1.137500800839796E+004	9.2558777E-003	-5.6192582E-004	0
1.138500800827688E+004	9.3894964E-003	-5.3091545E-004	0
1.139500800815581E+004	9.3704080E-003	-5.4269558E-004	0
1.140500800803474E+004	9.3513196E-003	-5.3282577E-004	0
1.141500800791367E+004	9.4467606E-003	-5.2251015E-004	0
1.142500800779260E+004	9.3513196E-003	-5.2760431E-004	0
1.143500800767152E+004	9.2177009E-003	-5.2512094E-004	0
1.144500800755045E+004	9.3322312E-003	-5.2677654E-004	0
1.145500800742938E+004	9.4085848E-003	-5.4664351E-004	0
1.146500800730831E+004	9.4658490E-003	-5.1722507E-004	0
1.147500800718724E+004	9.3131429E-003	-5.2696752E-004	0
1.148500800706616E+004	9.3513196E-003	-5.2391109E-004	0
1.149500800694509E+004	9.3131429E-003	-5.2957825E-004	0
1.150500800682402E+004	9.3513196E-003	-5.2639446E-004	0
1.151500800670295E+004	9.4658490E-003	-5.1773444E-004	0
1.152500800658188E+004	9.3894964E-003	-5.3499080E-004	0
1.153500800646080E+004	9.3513196E-003	-4.9729436E-004	0
1.154500800633973E+004	9.2940545E-003	-5.0640013E-004	0
1.155500800621866E+004	9.4276723E-003	-5.4562470E-004	0
1.156500800609759E+004	9.3131429E-003	-5.1741611E-004	0
1.157500800597652E+004	9.3322312E-003	-5.2906887E-004	0
1.158500800585544E+004	9.3131429E-003	-5.3346256E-004	0
1.159500800573437E+004	9.2749661E-003	-5.3365360E-004	0
1.160500800561330E+004	9.3322312E-003	-5.4479693E-004	0
1.161500800549223E+004	9.3322312E-003	-5.3963909E-004	0
1.162500800537116E+004	9.4085848E-003	-5.2575767E-004	0
1.163500800525009E+004	9.3894964E-003	-5.1168521E-004	0
1.164500800512901E+004	9.3894964E-003	-5.3594587E-004	0
1.165500800500794E+004	9.4849374E-003	-5.1002967E-004	0
1.166500800488687E+004	9.3704080E-003	-5.2321062E-004	0
1.167500800476580E+004	9.4085848E-003	-5.2410213E-004	0
1.168500800464473E+004	9.3131429E-003	-5.2881415E-004	0
1.169500800452365E+004	9.3894964E-003	-5.1314977E-004	0
1.170500800440258E+004	9.3322312E-003	-5.1410490E-004	0
1.171500800428151E+004	9.3894964E-003	-5.0862873E-004	0
1.172500800416044E+004	9.3513196E-003	-5.1652465E-004	0
1.173500800403937E+004	9.2940545E-003	-5.1047537E-004	0
1.174500800391829E+004	9.3322312E-003	-5.1506003E-004	0
1.175500800379722E+004	9.2558777E-003	-5.3320779E-004	0
1.176500800367615E+004	9.4276723E-003	-5.0920178E-004	0
1.177500800355508E+004	9.2749661E-003	-5.0563598E-004	0
1.178500800343401E+004	9.3513196E-003	-5.0729152E-004	0
1.179500800331293E+004	9.2940545E-003	-5.2505726E-004	0
1.180500800319186E+004	9.3704080E-003	-5.1073002E-004	0
1.181500800307079E+004	9.3131429E-003	-5.0996593E-004	0
1.182500800294972E+004	9.3513196E-003	-5.0264318E-004	0
1.183500800282865E+004	9.3704080E-003	-5.1334081E-004	0
1.184500800270757E+004	9.3131429E-003	-5.0920178E-004	0
1.185500800258650E+004	9.2749661E-003	-4.9200922E-004	0
1.186500800246543E+004	9.4849374E-003	-5.1677931E-004	0
1.187500800234436E+004	9.4276723E-003	-5.0907454E-004	0
1.188500800222329E+004	9.4085848E-003	-4.9971405E-004	0
1.189500800210222E+004	9.3894964E-003	-4.8545055E-004	0
1.190500800198114E+004	9.3131429E-003	-5.1391387E-004	0
1.191500800186007E+004	9.3704080E-003	-5.1155785E-004	0
1.192500800173900E+004	9.2558777E-003	-5.0015980E-004	0
1.193500800161793E+004	9.3704080E-003	-5.0907454E-004	0
1.194500800149686E+004	9.2940545E-003	-5.0257950E-004	0
1.195500800137578E+004	9.3704080E-003	-5.0366198E-004	0
1.196500800125471E+004	9.3131429E-003	-4.9977773E-004	0
1.197500800113364E+004	9.3131429E-003	-4.9856788E-004	0
1.198500800101257E+004	9.3131429E-003	-4.9079937E-004	0
1.199500800089150E+004	9.2558777E-003	-5.0296157E-004	0
1.200500800077042E+004	9.3131429E-003	-7.1379379E-004	0
1.201500800064935E+004	9.3704080E-003	-5.7905470E-004	0
1.202500800052828E+004	9.3704080E-003	-5.2289222E-004	0
1.203500800040721E+004	9.4276723E-003	-4.9194560E-004	0
1.204500800028614E+004	9.2940545E-003	-5.1276770E-004	0
1.205500800016506E+004	9.2749661E-003	-4.8494112E-004	0
1.206500800004399E+004	9.3131429E-003	-4.7863720E-004	0
1.207500799992292E+004	9.3322312E-003	-4.9137248E-004	0
1.208500799980185E+004	9.3513196E-003	-5.0238846E-004	0
1.209500799968078E+004	9.3322312E-003	-4.9977773E-004	0
1.210500799955970E+004	9.4467606E-003	-4.9812213E-004	0
1.211500799943863E+004	9.3894964E-003	-4.9595721E-004	0
1.212500799931756E+004	9.3704080E-003	-4.9398321E-004	0
1.213500799919649E+004	9.3513196E-003	-4.6768491E-004	0
1.214500799907542E+004	9.2940545E-003	-4.8150265E-004	0
1.215500799895434E+004	9.3704080E-003	-5.0582702E-004	0
1.216500799883327E+004	9.3131429E-003	-4.8901647E-004	0
1.217500799871220E+004	9.4276723E-003	-4.9398321E-004	0
1.218500799859113E+004	9.3704080E-003	-4.7386147E-004	0
1.219500799847006E+004	9.4085848E-003	-4.7647220E-004	0
1.220500799834899E+004	9.2940545E-003	-4.8876175E-004	0
1.221500799822791E+004	9.3894964E-003	-4.8220309E-004	0
1.222500799810684E+004	9.4658490E-003	-4.7672691E-004	0
1.223500799798577E+004	9.3894964E-003	-4.8513216E-004	0
1.224500799786470E+004	9.2940545E-003	-4.8908015E-004	0
1.225500799774363E+004	9.3131429E-003	-4.8035645E-004	0
1.226500799762255E+004	9.4085848E-003	-4.9882260E-004	0
1.227500799750148E+004	9.3131429E-003	-4.7901925E-004	0
1.228500799738041E+004	9.4276723E-003	-4.8589628E-004	0
1.229500799725934E+004	9.3322312E-003	-4.7424351E-004	0
1.230500799713827E+004	9.3322312E-003	-4.6965884E-004	0
1.231500799701719E+004	9.4085848E-003	-4.7679059E-004	0
1.232500799689612E+004	9.3513196E-003	-4.8704245E-004	0
1.233500799677505E+004	9.2940545E-003	-4.9614819E-004	0
1.234500799665398E+004	9.3322312E-003	-4.8920751E-004	0
1.235500799653291E+004	9.2940545E-003	-4.7761839E-004	0
1.236500799641183E+004	9.3894964E-003	-4.4832734E-004	0
1.237500799629076E+004	9.4467606E-003	-4.7023193E-004	0
1.238500799616969E+004	9.4276723E-003	-4.9181818E-004	0
1.239500799604862E+004	9.4276723E-003	-4.7137807E-004	0
1.240500799592755E+004	9.3322312E-003	-4.5947067E-004	0
1.241500799580647E+004	9.2749661E-003	-4.7475295E-004	0
1.242500799568540E+004	9.2749661E-003	-4.6246345E-004	0
1.243500799556433E+004	9.4276723E-003	-4.7067771E-004	0
1.244500799544326E+004	9.3513196E-003	-4.8245778E-004	0
1.245500799532219E+004	9.2940545E-003	-4.7532603E-004	0
1.246500799520111E+004	9.2940545E-003	-4.7921028E-004	0
1.247500799508004E+004	9.3513196E-003	-4.6685711E-004	0
1.248500799495897E+004	9.3322312E-003	-4.7035931E-004	0
1.249500799483790E+004	9.3704080E-003	-4.7596279E-004	0
1.250500799471683E+004	9.3894964E-003	-4.8099324E-004	0
1.251500799459576E+004	9.3513196E-003	-4.8436804E-004	0
1.252500799447468E+004	9.3513196E-003	-4.6914947E-004	0
1.253500799435361E+004	9.3894964E-003	-4.7640855E-004	0
1.254500799423254E+004	9.3322312E-003	-4.5635054E-004	0
1.255500799411147E+004	9.2749661E-003	-4.5380346E-004	0
1.256500799399040E+004	9.4276723E-003	-4.6825799E-004	0
1.257500799386932E+004	9.2940545E-003	-4.7819148E-004	0
1.258500799374825E+004	9.3513196E-003	-4.6118989E-004	0
1.259500799362718E+004	9.3131429E-003	-4.3361812E-004	0
1.260500799350611E+004	9.4085848E-003	-4.4266012E-004	0
1.261500799338504E+004	9.3894964E-003	-4.5947067E-004	0
1.262500799326396E+004	9.3131429E-003	-4.5463126E-004	0
1.263500799314289E+004	9.3322312E-003	-4.6163562E-004	0
1.264500799302182E+004	9.3704080E-003	-4.4094084E-004	0
1.265500799290075E+004	9.3704080E-003	-4.5335773E-004	0
1.266500799277968E+004	9.3131429E-003	-4.4909140E-004	0
1.267500799265860E+004	9.2367893E-003	-4.6558358E-004	0
1.268500799253753E+004	9.2940545E-003	-4.6265445E-004	0
1.269500799241646E+004	9.4276723E-003	-4.6297282E-004	0
1.270500799229539E+004	9.3513196E-003	-4.5902494E-004	0
1.271500799217432E+004	9.4276723E-003	-4.3412749E-004	0
1.272500799205324E+004	9.3513196E-003	-6.0974667E-004	0
1.273500799193217E+004	9.3513196E-003	-6.0942827E-004	0
1.274500799181110E+004	9.4085848E-003	-5.9541955E-004	0
1.275500799169003E+004	9.4276723E-003	-5.7599827E-004	0
1.276500799156896E+004	9.3513196E-003	-5.0773734E-004	0
1.277500799144788E+004	9.3322312E-003	-4.7545339E-004	0
1.278500799132681E+004	9.3704080E-003	-4.7354310E-004	0
1.279500799120574E+004	9.3894964E-003	-4.7984708E-004	0
1.280500799108467E+004	9.4085848E-003	-4.6934051E-004	0
1.281500799096360E+004	9.4085848E-003	-4.4928244E-004	0
1.282500799084253E+004	9.3704080E-003	-4.6189033E-004	0
1.283500799072145E+004	9.3131429E-003	-4.6456477E-004	0
1.284500799060038E+004	9.3131429E-003	-4.7074136E-004	0
1.285500799047931E+004	9.2749661E-003	-4.4609865E-004	0
1.286500799035824E+004	9.3513196E-003	-4.4826360E-004	0
1.287500799023717E+004	9.3322312E-003	-4.4635334E-004	0
1.288500799011609E+004	9.3322312E-003	-4.3540105E-004	0
1.289500798999502E+004	9.3894964E-003	-4.4692639E-004	0
1.290500798987395E+004	9.3704080E-003	-4.4412469E-004	0
1.291500798975288E+004	9.3894964E-003	-4.5641419E-004	0
1.292500798963181E+004	9.2558777E-003	-4.5036493E-004	0
1.293500798951073E+004	9.3131429E-003	-4.5902494E-004	0
1.294500798938966E+004	9.3704080E-003	-4.4476145E-004	0
1.295500798926859E+004	9.3513196E-003	-4.5310304E-004	0
1.296500798914752E+004	9.3322312E-003	-4.5246625E-004	0
1.297500798902645E+004	9.3131429E-003	-4.6029841E-004	0
1.298500798890537E+004	9.3704080E-003	-4.6138093E-004	0
1.299500798878430E+004	9.2367893E-003	-4.3661083E-004	0
1.300500798866323E+004	9.4085848E-003	-4.5227521E-004	0
1.301500798854216E+004	9.3131429E-003	-4.4234173E-004	0
1.302500798842109E+004	9.4085848E-003	-4.3686558E-004	0
1.303500798830001E+004	9.2940545E-003	-4.3782071E-004	0
1.304500798817894E+004	9.3894964E-003	-4.4699013E-004	0
1.305500798805787E+004	9.3513196E-003	-4.5972533E-004	0
1.306500798793680E+004	9.4085848E-003	-4.5609579E-004	0
1.307500798781573E+004	9.3894964E-003	-4.4125924E-004	0
1.308500798769465E+004	9.3704080E-003	-4.5272097E-004	0
1.309500798757358E+004	9.4467606E-003	-4.2635898E-004	0
1.310500798745251E+004	9.3513196E-003	-5.0582702E-004	0
1.311500798733144E+004	9.3704080E-003	-4.8615100E-004	0
1.312500798721037E+004	9.3513196E-003	-4.6099885E-004	0
1.313500798708930E+004	9.4276723E-003	-4.5545906E-004	0
1.314500798696822E+004	9.3513196E-003	-4.3158044E-004	0
1.315500798684715E+004	9.3704080E-003	-4.3648353E-004	0
1.316500798672608E+004	9.3322312E-003	-4.5418550E-004	0
1.317500798660501E+004	9.3513196E-003	-4.6736651E-004	0
1.318500798648394E+004	9.3322312E-003	-4.3247192E-004	0
1.319500798636286E+004	9.2940545E-003	-4.5272097E-004	0
1.320500798624179E+004	9.3704080E-003	-4.5641419E-004	0
1.321500798612072E+004	9.3704080E-003	-4.3833011E-004	0
1.322500798599965E+004	9.4658490E-003	-4.4227805E-004	0
1.323500798587858E+004	9.2940545E-003	-4.4208701E-004	0
1.324500798575750E+004	9.2367893E-003	-4.5373978E-004	0
1.325500798563643E+004	9.2749661E-003	-4.2801455E-004	0
1.326500798551536E+004	9.3513196E-003	-4.1629813E-004	0
1.326680158549365E+004	9.3704080E-003	-3.8929938E-004	0
1.326680178549365E+004	9.4276723E-003	-4.0133420E-004	0