time/s	Ewe/V	I/mA	error	
6.005299848293362E+001	2.7071595E+000	-2.5031064E-002	0
6.017319847989711E+001	9.3131429E-003	-1.7452591E+001	0
6.017359847988700E+001	9.4276723E-003	-1.7374317E+001	0
6.017399847987690E+001	9.3704080E-003	-1.7290314E+001	0
6.017439847986680E+001	9.3322312E-003	-1.7209494E+001	0
6.017479847985669E+001	9.4849374E-003	-1.7136948E+001	0
6.017519847984659E+001	9.3513196E-003	-1.7054216E+001	0
6.017559847983648E+001	9.3894964E-003	-1.6979124E+001	0
6.017599847982638E+001	9.3131429E-003	-1.6896395E+001	0
6.017639847981627E+001	9.3704080E-003	-1.6823212E+001	0
6.017679847980617E+001	9.3322312E-003	-1.6753845E+001	0
6.017719847979606E+001	9.2940545E-003	-1.6671114E+001	0
6.017759847978596E+001	9.3131429E-003	-1.6603022E+001	0
6.017799847977585E+001	9.2367893E-003	-1.6529839E+001	0
6.017839847976575E+001	9.4467606E-003	-1.6464291E+001	0
6.017879847975564E+001	9.3894964E-003	-1.6383471E+001	0
6.017919847974554E+001	9.4276723E-003	-1.6310923E+001	0
6.017959847973543E+001	9.3131429E-003	-1.6239012E+001	0
6.017999847972533E+001	9.3513196E-003	-1.6170919E+001	0
6.018039847971522E+001	9.4085848E-003	-1.6102190E+001	0
6.018079847970512E+001	9.2177009E-003	-1.6029007E+001	0
6.018119847969501E+001	9.3322312E-003	-1.5958368E+001	0
6.018159847968491E+001	9.3704080E-003	-1.5884547E+001	0
6.018199847967480E+001	9.4085848E-003	-1.5816454E+001	0
6.018239847966470E+001	9.3513196E-003	-1.5753452E+001	0
6.018279847965459E+001	9.3131429E-003	-1.5675815E+001	0
6.018319847964449E+001	9.3704080E-003	-1.5622359E+001	0
6.018359847963438E+001	9.4276723E-003	-1.5545993E+001	0
6.018399847962428E+001	9.2940545E-003	-1.5479810E+001	0
6.018439847961417E+001	9.3894964E-003	-1.5418079E+001	0
6.018479847960407E+001	9.4276723E-003	-1.5346805E+001	0
6.018519847959396E+001	9.3894964E-003	-1.5285712E+001	0
6.018559847958386E+001	9.2940545E-003	-1.5215710E+001	0
6.018599847957375E+001	9.4085848E-003	-1.5159073E+001	0
6.018639847956365E+001	9.2749661E-003	-1.5093526E+001	0
6.018679847955354E+001	9.3513196E-003	-1.5026069E+001	0
6.018719847954344E+001	9.3513196E-003	-1.4966249E+001	0
6.018759847953334E+001	9.3704080E-003	-1.4908975E+001	0
6.018799847952323E+001	9.2940545E-003	-1.4841518E+001	0
6.018839847951313E+001	9.3894964E-003	-1.4777244E+001	0
6.018879847950302E+001	9.4467606E-003	-1.4725697E+001	0
6.018919847949292E+001	9.3894964E-003	-1.4657603E+001	0
6.018959847948281E+001	9.3131429E-003	-1.4592693E+001	0
6.018999847947271E+001	9.2749661E-003	-1.4535418E+001	0
6.019039847946260E+001	9.3131429E-003	-1.4473690E+001	0
6.019099847944744E+001	9.4085848E-003	-1.4385232E+001	0
6.019139847943734E+001	9.4085848E-003	-1.4330503E+001	0
6.019179847942723E+001	9.3131429E-003	-1.4280230E+001	0
6.019219847941713E+001	9.4276723E-003	-1.4216591E+001	0
6.019259847940702E+001	9.3704080E-003	-1.4154863E+001	0
6.019299847939692E+001	9.3894964E-003	-1.4095043E+001	0
6.019339847938681E+001	9.3322312E-003	-1.4042223E+001	0
6.019379847937671E+001	9.3322312E-003	-1.3988131E+001	0
6.019419847936661E+001	9.3322312E-003	-1.3924493E+001	0
6.019459847935650E+001	9.2940545E-003	-1.3870400E+001	0
6.019499847934640E+001	9.3322312E-003	-1.3816307E+001	0
6.019539847933629E+001	9.4276723E-003	-1.3763488E+001	0
6.019579847932619E+001	9.2749661E-003	-1.3701758E+001	0
6.019639847931103E+001	9.3513196E-003	-1.3627303E+001	0
6.019679847930092E+001	9.3894964E-003	-1.3571937E+001	0
6.019719847929082E+001	9.3894964E-003	-1.3515299E+001	0
6.019759847928071E+001	9.5231142E-003	-1.3463115E+001	0
6.019799847927061E+001	9.2940545E-003	-1.3408388E+001	0
6.019859847925545E+001	9.3131429E-003	-1.3336475E+001	0
6.019899847924535E+001	9.4085848E-003	-1.3276019E+001	0
6.019959847923019E+001	9.4467606E-003	-1.3201563E+001	0
6.019999847922008E+001	9.3894964E-003	-1.3150016E+001	0
6.020039847920998E+001	9.3322312E-003	-1.3096560E+001	0
6.020099847919482E+001	9.3322312E-003	-1.3029740E+001	0
6.020139847918472E+001	9.3322312E-003	-1.2978829E+001	0
6.020179847917461E+001	9.3894964E-003	-1.2925373E+001	0
6.020239847915946E+001	9.3894964E-003	-1.2850917E+001	0
6.020299847914430E+001	9.4467606E-003	-1.2786005E+001	0
6.020339847913419E+001	9.3322312E-003	-1.2730640E+001	0
6.020399847911904E+001	9.4085848E-003	-1.2666365E+001	0
6.020439847910893E+001	9.3704080E-003	-1.2613546E+001	0
6.020479847909883E+001	9.3704080E-003	-1.2560726E+001	0
6.020539847908367E+001	9.2749661E-003	-1.2497725E+001	0
6.020599847906851E+001	9.3704080E-003	-1.2428360E+001	0
6.020639847905841E+001	9.3322312E-003	-1.2377449E+001	0
6.020699847904325E+001	9.3894964E-003	-1.2314447E+001	0
6.020739847903315E+001	9.3322312E-003	-1.2264173E+001	0
6.020799847901799E+001	9.3322312E-003	-1.2197990E+001	0
6.020859847900283E+001	9.2558777E-003	-1.2133079E+001	0
6.020919847898767E+001	9.3131429E-003	-1.2069440E+001	0
6.020979847897252E+001	9.4467606E-003	-1.2005801E+001	0
6.021039847895736E+001	9.4276723E-003	-1.1933254E+001	0
6.021099847894220E+001	9.2367893E-003	-1.1870253E+001	0
6.021159847892704E+001	9.4276723E-003	-1.1805341E+001	0
6.021219847891189E+001	9.3513196E-003	-1.1739795E+001	0
6.021279847889673E+001	9.3513196E-003	-1.1677428E+001	0
6.021339847888157E+001	9.3704080E-003	-1.1613154E+001	0
6.021399847886642E+001	9.3894964E-003	-1.1558426E+001	0
6.021459847885126E+001	9.2558777E-003	-1.1485242E+001	0
6.021519847883610E+001	9.4276723E-003	-1.1429240E+001	0
6.021579847882094E+001	9.4085848E-003	-1.1365602E+001	0
6.021639847880579E+001	9.3131429E-003	-1.1312781E+001	0
6.021699847879063E+001	9.4276723E-003	-1.1258054E+001	0
6.021759847877547E+001	9.2940545E-003	-1.1186779E+001	0
6.021819847876031E+001	9.3322312E-003	-1.1127595E+001	0
6.021879847874516E+001	9.3894964E-003	-1.1076048E+001	0
6.021939847873000E+001	9.4085848E-003	-1.1012411E+001	0
6.022019847870979E+001	9.3513196E-003	-1.0937317E+001	0
6.022079847869463E+001	9.3322312E-003	-1.0886407E+001	0
6.022139847867948E+001	9.3894964E-003	-1.0832952E+001	0
6.022199847866432E+001	9.3704080E-003	-1.0778858E+001	0
6.022259847864916E+001	9.3131429E-003	-1.0720947E+001	0
6.022319847863400E+001	9.3894964E-003	-1.0663672E+001	0
6.022399847861379E+001	9.3322312E-003	-1.0590489E+001	0
6.022459847859864E+001	9.4658490E-003	-1.0536397E+001	0
6.022519847858348E+001	9.4085848E-003	-1.0484214E+001	0
6.022599847856327E+001	9.4085848E-003	-1.0414211E+001	0
6.022659847854811E+001	9.3704080E-003	-1.0363937E+001	0
6.022719847853296E+001	9.2558777E-003	-1.0311118E+001	0
6.022799847851275E+001	9.4276723E-003	-1.0245570E+001	0
6.022879847849254E+001	9.3704080E-003	-1.0178750E+001	0
6.022959847847233E+001	9.4085848E-003	-1.0117658E+001	0
6.023019847845717E+001	9.3513196E-003	-1.0063564E+001	0
6.023099847843696E+001	9.3322312E-003	-1.0000563E+001	0
6.023159847842180E+001	9.3322312E-003	-9.9490156E+000	0
6.023219847840664E+001	9.3131429E-003	-9.8974686E+000	0
6.023299847838643E+001	9.2749661E-003	-9.8389225E+000	0
6.023379847836623E+001	9.2940545E-003	-9.7784662E+000	0
6.023439847835107E+001	9.3894964E-003	-9.7256460E+000	0
6.023519847833086E+001	9.3513196E-003	-9.6696453E+000	0
6.023579847831570E+001	9.3322312E-003	-9.6180983E+000	0
6.023659847829549E+001	9.3704080E-003	-9.5652781E+000	0
6.023719847828033E+001	9.4467606E-003	-9.5143681E+000	0
6.023799847826012E+001	9.4276723E-003	-9.4596395E+000	0
6.023879847823991E+001	9.3513196E-003	-9.3966379E+000	0
6.023959847821970E+001	9.3704080E-003	-9.3380899E+000	0
6.024039847819950E+001	9.4467606E-003	-9.2865429E+000	0
6.024119847817929E+001	9.2749661E-003	-9.2273588E+000	0
6.024199847815908E+001	9.3894964E-003	-9.1694489E+000	0
6.024279847813887E+001	9.3894964E-003	-9.1172657E+000	0
6.024359847811866E+001	9.4276723E-003	-9.0568094E+000	0
6.024439847809845E+001	9.2749661E-003	-9.0020800E+000	0
6.024539847807318E+001	9.4276723E-003	-8.9467154E+000	0
6.024599847805803E+001	9.3513196E-003	-8.8951683E+000	0
6.024699847803277E+001	9.2749661E-003	-8.8391666E+000	0
6.024779847801256E+001	9.4467606E-003	-8.7812567E+000	0
6.024879847798729E+001	9.2749661E-003	-8.7182550E+000	0
6.024959847796708E+001	9.4658490E-003	-8.6667070E+000	0
6.025059847794182E+001	9.4085848E-003	-8.6017971E+000	0
6.025159847791656E+001	9.3704080E-003	-8.5400667E+000	0
6.025259847789130E+001	9.3322312E-003	-8.4783382E+000	0
6.025359847786604E+001	9.3322312E-003	-8.4140635E+000	0
6.025459847784077E+001	9.3704080E-003	-8.3593349E+000	0
6.025559847781551E+001	9.3513196E-003	-8.3052425E+000	0
6.025639847779530E+001	9.3704080E-003	-8.2517862E+000	0
6.025739847777004E+001	9.3704080E-003	-8.1868753E+000	0
6.025839847774478E+001	9.4085848E-003	-8.1340561E+000	0
6.025939847771951E+001	9.4276723E-003	-8.0780544E+000	0
6.026059847768920E+001	9.3894964E-003	-8.0163260E+000	0
6.026159847766394E+001	9.3704080E-003	-7.9552326E+000	0
6.026259847763868E+001	9.3704080E-003	-7.8973217E+000	0
6.026379847760836E+001	9.3894964E-003	-7.8355927E+000	0
6.026499847757805E+001	9.4467606E-003	-7.7713180E+000	0
6.026619847754773E+001	9.3704080E-003	-7.7172260E+000	0
6.026719847752247E+001	9.3894964E-003	-7.6599517E+000	0
6.026819847749721E+001	9.4849374E-003	-7.6071324E+000	0
6.026939847746689E+001	9.4085848E-003	-7.5504942E+000	0
6.027039847744163E+001	9.3322312E-003	-7.5002198E+000	0
6.027139847741637E+001	9.3513196E-003	-7.4493093E+000	0
6.027259847738605E+001	9.4467606E-003	-7.3933082E+000	0
6.027379847735574E+001	9.3704080E-003	-7.3283973E+000	0
6.027499847732543E+001	9.4658490E-003	-7.2755771E+000	0
6.027619847729511E+001	9.4658490E-003	-7.2202120E+000	0
6.027739847726480E+001	9.4085848E-003	-7.1654825E+000	0
6.027859847723448E+001	9.4085848E-003	-7.1113911E+000	0
6.027979847720417E+001	9.3894964E-003	-7.0592079E+000	0
6.028099847717385E+001	9.3322312E-003	-7.0082970E+000	0
6.028219847714354E+001	9.4467606E-003	-6.9516587E+000	0
6.028359847710817E+001	9.2940545E-003	-6.8880205E+000	0
6.028499847707280E+001	9.3704080E-003	-6.8282013E+000	0
6.028639847703744E+001	9.3704080E-003	-6.7741089E+000	0
6.028759847700712E+001	9.4276723E-003	-6.7200160E+000	0
6.028899847697176E+001	9.3704080E-003	-6.6671963E+000	0
6.029039847693639E+001	9.4467606E-003	-6.6156497E+000	0
6.029159847690607E+001	9.3704080E-003	-6.5615568E+000	0
6.029319847686565E+001	9.3513196E-003	-6.4985557E+000	0
6.029479847682524E+001	9.3322312E-003	-6.4444628E+000	0
6.029619847678987E+001	9.3704080E-003	-6.3878245E+000	0
6.029779847674945E+001	9.3131429E-003	-6.3362780E+000	0
6.029899847671913E+001	9.5231142E-003	-6.2840953E+000	0
6.030059847667872E+001	9.3513196E-003	-6.2236385E+000	0
6.030239847663324E+001	9.3131429E-003	-6.1650915E+000	0
6.030399847659282E+001	9.4085848E-003	-6.1148171E+000	0
6.030539847655746E+001	9.3894964E-003	-6.0626345E+000	0
6.030679847652209E+001	9.4658490E-003	-6.0123596E+000	0
6.030859847647662E+001	9.4658490E-003	-5.9614496E+000	0
6.031019847643620E+001	9.4085848E-003	-5.9048114E+000	0
6.031159847640083E+001	9.3704080E-003	-5.8532643E+000	0
6.031339847635536E+001	9.2940545E-003	-5.8017178E+000	0
6.031519847630989E+001	9.3894964E-003	-5.7463522E+000	0
6.031679847626947E+001	9.3704080E-003	-5.6941695E+000	0
6.031879847621894E+001	9.4085848E-003	-5.6381674E+000	0
6.032059847617347E+001	9.4085848E-003	-5.5828018E+000	0
6.032239847612800E+001	9.3894964E-003	-5.5299826E+000	0
6.032419847608253E+001	9.4085848E-003	-5.4777989E+000	0
6.032639847602695E+001	9.4085848E-003	-5.4198885E+000	0
6.032839847597643E+001	9.3513196E-003	-5.3587956E+000	0
6.033099847591075E+001	9.4467606E-003	-5.2964306E+000	0
6.033319847585517E+001	9.4467606E-003	-5.2391558E+000	0
6.033499847580970E+001	9.4467606E-003	-5.1850638E+000	0
6.033719847575412E+001	9.3131429E-003	-5.1277895E+000	0
6.033979847568844E+001	9.3894964E-003	-5.0698786E+000	0
6.034219847562781E+001	9.4085848E-003	-5.0132408E+000	0
6.034459847556718E+001	9.4467606E-003	-4.9578757E+000	0
6.034719847550150E+001	9.3322312E-003	-4.8980556E+000	0
6.034999847543077E+001	9.2940545E-003	-4.8401451E+000	0
6.035239847537014E+001	9.4658490E-003	-4.7898707E+000	0
6.035459847531456E+001	9.3704080E-003	-4.7332325E+000	0
6.035719847524888E+001	9.2749661E-003	-4.6778674E+000	0
6.035999847517814E+001	9.3894964E-003	-4.6250477E+000	0
6.036259847511246E+001	9.3513196E-003	-4.5722284E+000	0
6.036519847504678E+001	9.4276723E-003	-4.5174994E+000	0
6.036819847497100E+001	9.4276723E-003	-4.4589524E+000	0
6.037119847489521E+001	9.4085848E-003	-4.4067688E+000	0
6.037319847484468E+001	9.3513196E-003	-4.4673572E+000	0
6.040339847408177E+001	9.3894964E-003	-3.9044292E+000	0
6.040699847399083E+001	9.4085848E-003	-3.8531482E+000	0
6.041079847389483E+001	9.3704080E-003	-3.8018031E+000	0
6.041459847379883E+001	9.4467606E-003	-3.7496309E+000	0
6.041859847369778E+001	9.4276723E-003	-3.6989856E+000	0
6.042259847359674E+001	9.3513196E-003	-3.6480863E+000	0
6.042699847348558E+001	9.4849374E-003	-3.5964231E+000	0
6.043139847337443E+001	9.3894964E-003	-3.5436783E+000	0
6.043579847326328E+001	9.3894964E-003	-3.4930332E+000	0
6.044039847314707E+001	9.3322312E-003	-3.4427698E+000	0
6.044519847302581E+001	9.2940545E-003	-3.3913612E+000	0
6.044999847290455E+001	9.2749661E-003	-3.3405888E+000	0
6.045519847277319E+001	9.3131429E-003	-3.2882257E+000	0
6.046039847264183E+001	9.3894964E-003	-3.2374530E+000	0
6.046579847250541E+001	9.4467606E-003	-3.1861084E+000	0
6.047139847236394E+001	9.3704080E-003	-3.1359084E+000	0
6.047739847221237E+001	9.3131429E-003	-3.0845001E+000	0
6.048339847206080E+001	9.4085848E-003	-3.0329640E+000	0
6.048959847190417E+001	9.4467606E-003	-2.9822555E+000	0
6.049619847173744E+001	9.2749661E-003	-2.9307833E+000	0
6.050279847157071E+001	9.3322312E-003	-2.8807108E+000	0
6.050979847139388E+001	9.4467606E-003	-2.8305748E+000	0
6.051699847121199E+001	9.3131429E-003	-2.7799294E+000	0
6.052459847102000E+001	9.3704080E-003	-2.7296026E+000	0
6.053239847082295E+001	9.3704080E-003	-2.6782575E+000	0
6.054079847061075E+001	9.4849374E-003	-2.6268487E+000	0
6.054939847039350E+001	9.5040258E-003	-2.5753129E+000	0
6.055839847016614E+001	9.4085848E-003	-2.5247953E+000	0
6.056779846992868E+001	9.3131429E-003	-2.4740229E+000	0
6.057759846968111E+001	9.4276723E-003	-2.4228687E+000	0
6.058779846942343E+001	9.3894964E-003	-2.3727961E+000	0
6.059839846915565E+001	9.3513196E-003	-2.3220236E+000	0
6.060959846887272E+001	9.4085848E-003	-2.2718239E+000	0
6.062119846857968E+001	9.3894964E-003	-2.2214334E+000	0
6.063339846827148E+001	9.2749661E-003	-2.1707246E+000	0
6.064679846793297E+001	9.3322312E-003	-2.1202703E+000	0
6.066039846758940E+001	9.4085848E-003	-2.0696251E+000	0
6.067499846722058E+001	9.3894964E-003	-2.0192981E+000	0
6.068999846684164E+001	9.3894964E-003	-1.9687166E+000	0
6.070599846643745E+001	9.3131429E-003	-1.9185168E+000	0
6.072339846599789E+001	9.4849374E-003	-1.8675535E+000	0
6.074119846554822E+001	9.3704080E-003	-1.8170993E+000	0
6.076059846505814E+001	9.3131429E-003	-1.7666450E+000	0
6.078099846454279E+001	9.3894964E-003	-1.7158725E+000	0
6.080299846398702E+001	9.3513196E-003	-1.6654184E+000	0
6.082659846339084E+001	9.3894964E-003	-1.6148369E+000	0
6.085179846275423E+001	9.3322312E-003	-1.5647644E+000	0
6.087819846208731E+001	9.4658490E-003	-1.5145010E+000	0
6.090699846135976E+001	9.3322312E-003	-1.4642377E+000	0
6.093819846057158E+001	9.3894964E-003	-1.4141651E+000	0
6.097179845972278E+001	9.4467606E-003	-1.3641564E+000	0
6.100879845878808E+001	9.2367893E-003	-1.3133203E+000	0
6.104939845776244E+001	9.5231142E-003	-1.2626115E+000	0
6.109339845665090E+001	9.3131429E-003	-1.2122209E+000	0
6.114199845542316E+001	9.3513196E-003	-1.1618940E+000	0
6.119699845403375E+001	9.3513196E-003	-1.1116306E+000	0
6.125719845251297E+001	9.3704080E-003	-1.0615580E+000	0
6.132419845082040E+001	9.3322312E-003	-1.0113583E+000	0
6.139979844891059E+001	9.2749661E-003	-9.6090388E-001	0
6.148699844670773E+001	9.3704080E-003	-9.1051328E-001	0
6.158659844419162E+001	9.4467606E-003	-8.5942280E-001	0
6.170179844128143E+001	9.4276723E-003	-8.0935031E-001	0
6.183499843791651E+001	9.3513196E-003	-7.5883245E-001	0
6.199239843394025E+001	9.3322312E-003	-7.0875996E-001	0
6.217819842924655E+001	9.2749661E-003	-6.5875107E-001	0
6.240639842348173E+001	9.3894964E-003	-6.0816956E-001	0
6.268719841638813E+001	9.5040258E-003	-5.5809706E-001	0
6.304339840738976E+001	9.4085848E-003	-5.0783366E-001	0
6.350639839569340E+001	9.3894964E-003	-4.5769754E-001	0
6.417779837873240E+001	9.3513196E-003	-4.0752134E-001	0
6.505279835662805E+001	9.4276723E-003	-3.6046001E-001	0
6.505339835659834E+001	9.4658490E-003	-3.5953063E-001	0
6.641899832210038E+001	9.4467606E-003	-3.0947110E-001	0
6.864479826587194E+001	9.3704080E-003	-2.5942430E-001	0
7.263419816509122E+001	9.4276723E-003	-2.0927565E-001	0
8.069279796151386E+001	9.4085848E-003	-1.5926065E-001	0
9.069279770889261E+001	9.2749661E-003	-1.2543356E-001	0
1.006927974562714E+002	9.3704080E-003	-1.0195065E-001	0
1.106927972036501E+002	9.3322312E-003	-8.5820064E-002	0
1.206927969510289E+002	9.3322312E-003	-7.4635610E-002	0
1.306927966984076E+002	9.2558777E-003	-6.6105627E-002	0
1.406927964457864E+002	9.3894964E-003	-5.9256177E-002	0
1.506927961931651E+002	9.4276723E-003	-5.4119091E-002	0
1.606927959405439E+002	9.2940545E-003	-4.9389407E-002	0
1.706927956879226E+002	9.3322312E-003	-4.5710053E-002	0
1.806927954353014E+002	9.2940545E-003	-4.2553492E-002	0
1.906927951826801E+002	9.3513196E-003	-3.9814699E-002	0
2.006927949300589E+002	9.4085848E-003	-3.7408717E-002	0
2.106927946774376E+002	9.3513196E-003	-3.5327900E-002	0
2.206927944248164E+002	9.3513196E-003	-3.3416986E-002	0
2.306927941721951E+002	9.3894964E-003	-3.1808965E-002	0
2.406927939195739E+002	9.3704080E-003	-3.0248670E-002	0
2.506927936669526E+002	9.2749661E-003	-2.8848732E-002	0
2.606927934143314E+002	9.3513196E-003	-2.7567152E-002	0
2.706927931617101E+002	9.3322312E-003	-2.6301481E-002	0
2.806927929090889E+002	9.3704080E-003	-2.5353340E-002	0
2.906927926564676E+002	9.4085848E-003	-2.4236573E-002	0
3.006927924038464E+002	9.4658490E-003	-2.3340613E-002	0
3.106927921512251E+002	9.2558777E-003	-2.2428108E-002	0
3.206927918986039E+002	9.4085848E-003	-2.1623142E-002	0
3.306927916459827E+002	9.4085848E-003	-2.0941628E-002	0
3.406927913933614E+002	9.3704080E-003	-2.0223204E-002	0
3.506927911407402E+002	9.2940545E-003	-1.9569688E-002	0
3.606927908881189E+002	9.3322312E-003	-1.8946078E-002	0
3.706927906354977E+002	9.3894964E-003	-1.8365741E-002	0
3.806927903828764E+002	9.2749661E-003	-1.7597048E-002	0
3.906927901302552E+002	9.3131429E-003	-1.7131886E-002	0
4.006927898776339E+002	9.3131429E-003	-1.6743086E-002	0
4.106927896250127E+002	9.3322312E-003	-1.6200928E-002	0
4.206927893723914E+002	9.3704080E-003	-1.5752310E-002	0
4.306927891197702E+002	9.3322312E-003	-1.5271879E-002	0
4.406927888671489E+002	9.3322312E-003	-1.4949256E-002	0
4.506927886145277E+002	9.3894964E-003	-1.4438914E-002	0
4.606927883619064E+002	9.4085848E-003	-1.4238468E-002	0
4.706927881092852E+002	9.3894964E-003	-1.3734491E-002	0
4.806927878566639E+002	9.3131429E-003	-1.3469775E-002	0
4.906927876040427E+002	9.3894964E-003	-1.3105793E-002	0
5.006927873514214E+002	9.3704080E-003	-1.2785079E-002	0
5.106927870988002E+002	9.3513196E-003	-1.2489184E-002	0
5.206927868461789E+002	9.4085848E-003	-1.2135381E-002	0
5.306927865935577E+002	9.2940545E-003	-1.1911390E-002	0
5.406927863409364E+002	9.3131429E-003	-1.1720490E-002	0
5.506927860883152E+002	9.3704080E-003	-1.1305599E-002	0
5.606927858356939E+002	9.3894964E-003	-1.1211421E-002	0
5.706927855830727E+002	9.4276723E-003	-1.0917434E-002	0
5.806927853304514E+002	9.3322312E-003	-1.0759624E-002	0
5.906927850778302E+002	9.3322312E-003	-1.0507635E-002	0
6.006927848252089E+002	9.3704080E-003	-1.0208556E-002	0
6.106927845725877E+002	9.3704080E-003	-1.0078744E-002	0
6.206927843199664E+002	9.4467606E-003	-9.9056605E-003	0
6.306927840673452E+002	9.3131429E-003	-9.6886707E-003	0
6.406927838147240E+002	9.3894964E-003	-9.4436817E-003	0
6.506927835621027E+002	9.2940545E-003	-9.2635984E-003	0
6.606927833094815E+002	9.3704080E-003	-9.1757840E-003	0
6.706927830568602E+002	9.4467606E-003	-9.0262452E-003	0
6.806927828042390E+002	9.3322312E-003	-8.8003464E-003	0
6.906927825516177E+002	9.3131429E-003	-8.6985324E-003	0
7.006927822989965E+002	9.2749661E-003	-8.5388124E-003	0
7.106927820463752E+002	9.2940545E-003	-8.4070908E-003	0
7.206927817937540E+002	9.3704080E-003	-8.2002813E-003	0
7.306927815411327E+002	9.3131429E-003	-8.1035588E-003	0
7.406927812885115E+002	9.2749661E-003	-7.9005677E-003	0
7.506927810358902E+002	9.2940545E-003	-7.8121168E-003	0
7.606927807832690E+002	9.2749661E-003	-7.7332114E-003	0
7.706927805306477E+002	9.3704080E-003	-7.5429468E-003	0
7.806927802780265E+002	9.3322312E-003	-7.3921354E-003	0
7.906927800254052E+002	9.3513196E-003	-7.3743183E-003	0
8.006927797727840E+002	9.2940545E-003	-7.1738726E-003	0
8.106927795201627E+002	9.3704080E-003	-7.1465103E-003	0
8.206927792675415E+002	9.3513196E-003	-6.9956984E-003	0
8.306927790149202E+002	9.2749661E-003	-6.7920717E-003	0
8.406927787622990E+002	9.3894964E-003	-6.8786130E-003	0
8.506927785096777E+002	9.4085848E-003	-6.5699909E-003	0
8.606927782570565E+002	9.3704080E-003	-6.5712621E-003	0
8.706927780044352E+002	9.4276723E-003	-6.3256379E-003	0
8.806927777518140E+002	9.3322312E-003	-6.3784532E-003	0
8.906927774991927E+002	9.3322312E-003	-6.3383635E-003	0
9.006927772465715E+002	9.3894964E-003	-6.1907344E-003	0
9.106927769939502E+002	9.3894964E-003	-5.9947427E-003	0
9.206927767413290E+002	9.4276723E-003	-5.9584714E-003	0
9.306927764887078E+002	9.2177009E-003	-5.9069288E-003	0
9.406927762360865E+002	9.4276723E-003	-5.7319365E-003	0
9.506927759834653E+002	9.3513196E-003	-5.6994837E-003	0
9.606927757308440E+002	9.3704080E-003	-5.6695757E-003	0
9.706927754782228E+002	9.3131429E-003	-5.5423086E-003	0
9.806927752256015E+002	9.4085848E-003	-5.5607622E-003	0
9.906927749729803E+002	9.3131429E-003	-5.4328591E-003	0
1.000692774720359E+003	9.3131429E-003	-5.3679524E-003	0
1.010692774467738E+003	9.4276723E-003	-5.2903197E-003	0
1.020692774215117E+003	9.2940545E-003	-5.2158679E-003	0
1.030692773962495E+003	9.3704080E-003	-5.1191449E-003	0
1.040692773709874E+003	9.3322312E-003	-5.1134182E-003	0
1.050692773457253E+003	9.4276723E-003	-5.0345128E-003	0
1.060692773204632E+003	9.3894964E-003	-4.9683335E-003	0
1.070692772952010E+003	9.3894964E-003	-4.8709740E-003	0
1.080692772699389E+003	9.3513196E-003	-4.8207040E-003	0
1.090692772446768E+003	9.3894964E-003	-4.8283399E-003	0
1.100692772194147E+003	9.3513196E-003	-4.7137998E-003	0
1.110692771941525E+003	9.3704080E-003	-4.6228035E-003	0
1.120692771688904E+003	9.3131429E-003	-4.5687151E-003	0
1.130692771436283E+003	9.5040258E-003	-4.5470800E-003	0
1.140692771183662E+003	9.3322312E-003	-4.4883327E-003	0
1.150692770931040E+003	9.3513196E-003	-4.4030068E-003	0
1.160692770678419E+003	9.3894964E-003	-4.3954290E-003	0
1.170692770425798E+003	9.3322312E-003	-4.3760077E-003	0
1.180692770173177E+003	9.3131429E-003	-4.3026526E-003	0
1.190692769920555E+003	9.3131429E-003	-4.2646378E-003	0
1.200692769667934E+003	9.3322312E-003	-4.1665765E-003	0
1.210692769415313E+003	9.3704080E-003	-4.1521857E-003	0
1.220692769162692E+003	9.3704080E-003	-4.1049379E-003	0
1.230692768910070E+003	9.2749661E-003	-4.0689604E-003	0
1.240692768657449E+003	9.3704080E-003	-4.0392876E-003	0
1.250692768404828E+003	9.4658490E-003	-3.9855447E-003	0
1.260692768152207E+003	9.4276723E-003	-3.9130175E-003	0
1.270692767899585E+003	9.1795251E-003	-3.8777406E-003	0
1.280692767646964E+003	9.3513196E-003	-3.8466030E-003	0
1.290692767394343E+003	9.3322312E-003	-3.7811438E-003	0
1.300692767141722E+003	9.2940545E-003	-3.7634419E-003	0
1.310692766889100E+003	9.3131429E-003	-3.7331318E-003	0
1.320692766636479E+003	9.3131429E-003	-3.6714294E-003	0
1.330692766383858E+003	9.4467606E-003	-3.6408650E-003	0
1.340692766131237E+003	9.2940545E-003	-3.5999846E-003	0
1.350692765878615E+003	9.4658490E-003	-3.5619065E-003	0
1.360692765625994E+003	9.4276723E-003	-3.5107741E-003	0
1.370692765373373E+003	9.3322312E-003	-3.4974022E-003	0
1.380692765120752E+003	9.3322312E-003	-3.4588142E-003	0
1.390692764868130E+003	9.3513196E-003	-3.4293958E-003	0
1.400692764615509E+003	9.2940545E-003	-3.4038618E-003	0
1.410692764362888E+003	9.3131429E-003	-3.3767996E-003	0
1.420692764110267E+003	9.3894964E-003	-3.3180900E-003	0
1.430692763857645E+003	9.3704080E-003	-3.2628826E-003	0
1.440692763605024E+003	9.3322312E-003	-3.2474729E-003	0
1.450692763352403E+003	9.4085848E-003	-3.2111139E-003	0
1.460692763099782E+003	9.2367893E-003	-3.1965317E-003	0
1.470692762847160E+003	9.3322312E-003	-3.1851337E-003	0
1.480692762594539E+003	9.3704080E-003	-3.1307542E-003	0
1.490692762341918E+003	9.3704080E-003	-3.0777117E-003	0
1.500692762089297E+003	9.2177009E-003	-3.0646585E-003	0
1.510692761836675E+003	9.3894964E-003	-3.0394427E-003	0
1.520692761584054E+003	9.2940545E-003	-3.0097696E-003	0
1.530692761331433E+003	9.2940545E-003	-3.0079228E-003	0
1.540692761078812E+003	9.4276723E-003	-2.9334852E-003	0
1.550692760826190E+003	9.2940545E-003	-2.9558993E-003	0
1.560692760573569E+003	9.3513196E-003	-2.9362235E-003	0
1.570692760320948E+003	9.3131429E-003	-2.8866830E-003	0
1.580692760068327E+003	9.2749661E-003	-2.8536352E-003	0
1.590692759815705E+003	9.3131429E-003	-2.8492413E-003	0
1.600692759563084E+003	9.3131429E-003	-2.8428738E-003	0
1.610692759310463E+003	9.3131429E-003	-2.7960080E-003	0
1.620692759057842E+003	9.3131429E-003	-2.7642974E-003	0
1.630692758805220E+003	9.2940545E-003	-2.7416924E-003	0
1.640692758552599E+003	9.3704080E-003	-2.7095994E-003	0
1.650692758299978E+003	9.3894964E-003	-2.6754050E-003	0
1.660692758047357E+003	9.4467606E-003	-2.6702473E-003	0
1.670692757794735E+003	9.3704080E-003	-2.6590405E-003	0
1.680692757542114E+003	9.2749661E-003	-2.6250375E-003	0
1.690692757289493E+003	9.4276723E-003	-2.6059344E-003	0
1.700692757036872E+003	9.3131429E-003	-2.5747330E-003	0
1.710692756784250E+003	9.4276723E-003	-2.5652454E-003	0
1.720692756531629E+003	9.2940545E-003	-2.5572858E-003	0
1.730692756279008E+003	9.3704080E-003	-2.5581773E-003	0
1.740692756026387E+003	9.3704080E-003	-2.5199077E-003	0
1.750692755773765E+003	9.2940545E-003	-2.5260844E-003	0
1.760692755521144E+003	9.3322312E-003	-2.4911899E-003	0
1.770692755268523E+003	9.4276723E-003	-2.4632995E-003	0
1.780692755015902E+003	9.3513196E-003	-2.4965387E-003	0
1.790692754763280E+003	9.3322312E-003	-2.3955482E-003	0
1.800692754510659E+003	9.3322312E-003	-2.4483358E-003	0
1.810692754258038E+003	9.3704080E-003	-2.3665116E-003	0
1.820692754005417E+003	9.3513196E-003	-2.3871427E-003	0
1.830692753752795E+003	9.4276723E-003	-2.3321903E-003	0
1.840692753500174E+003	9.3513196E-003	-2.3635826E-003	0
1.850692753247553E+003	9.4276723E-003	-2.3111771E-003	0
1.860692752994932E+003	9.3322312E-003	-2.3152523E-003	0
1.870692752742310E+003	9.3513196E-003	-2.2973591E-003	0
1.880692752489689E+003	9.3704080E-003	-2.2416424E-003	0
1.890692752237068E+003	9.3513196E-003	-2.2360389E-003	0
1.900692751984447E+003	9.3894964E-003	-2.2144525E-003	0
1.910692751731825E+003	9.3894964E-003	-2.1959229E-003	0
1.920692751479204E+003	9.3131429E-003	-2.1723628E-003	0
1.930692751226583E+003	9.2558777E-003	-2.2084035E-003	0
1.940692750973962E+003	9.3322312E-003	-2.1929301E-003	0
1.950692750721340E+003	9.4467606E-003	-2.1693697E-003	0
1.960692750468719E+003	9.3322312E-003	-2.1399513E-003	0
1.970692750216098E+003	9.3513196E-003	-2.1301452E-003	0
1.980692749963477E+003	9.4467606E-003	-2.1169642E-003	0
1.990692749710855E+003	9.3513196E-003	-2.0943591E-003	0
2.000692749458234E+003	9.2558777E-003	-2.0677424E-003	0
2.010692749205613E+003	9.4276723E-003	-2.0938497E-003	0
2.020692748952992E+003	9.3894964E-003	-2.0764661E-003	0
2.030692748700370E+003	9.3131429E-003	-2.0395976E-003	0
2.040692748447749E+003	9.4085848E-003	-2.0388970E-003	0
2.050692748195128E+003	9.3704080E-003	-2.0083326E-003	0
2.060692747942507E+003	9.3513196E-003	-1.9917130E-003	0
2.070692747689885E+003	9.3322312E-003	-1.9987174E-003	0
2.080692747437264E+003	9.2749661E-003	-1.9498140E-003	0
2.090692747184643E+003	9.3131429E-003	-1.9661787E-003	0
2.100692746932022E+003	9.3704080E-003	-1.9303926E-003	0
2.110692746679400E+003	9.4276723E-003	-1.9563090E-003	0
2.120692746426779E+003	9.4276723E-003	-1.9019294E-003	0
2.130692746174158E+003	9.4085848E-003	-1.9142827E-003	0
2.140692745921537E+003	9.2940545E-003	-1.9018658E-003	0
2.150692745668915E+003	9.2940545E-003	-1.8873475E-003	0
2.160692745416294E+003	9.2940545E-003	-1.8490780E-003	0
2.170692745163673E+003	9.3894964E-003	-1.8772230E-003	0
2.180692744911052E+003	9.3513196E-003	-1.8899582E-003	0
2.190692744658430E+003	9.4276723E-003	-1.8393995E-003	0
2.200692744405809E+003	9.3513196E-003	-1.9016748E-003	0
2.210692744153188E+003	9.3513196E-003	-1.8596485E-003	0
2.220692743900567E+003	9.3513196E-003	-1.8172400E-003	0
2.230692743647945E+003	9.2940545E-003	-1.7903686E-003	0
2.240692743395324E+003	9.3513196E-003	-1.7807535E-003	0
2.250692743142703E+003	9.3322312E-003	-1.7885857E-003	0
2.260692742890082E+003	9.3131429E-003	-1.7978823E-003	0
2.270692742637460E+003	9.4085848E-003	-1.7670630E-003	0
2.280692742384839E+003	9.2940545E-003	-1.7494883E-003	0
2.290692742132218E+003	9.3322312E-003	-1.7503799E-003	0
2.300692741879597E+003	9.3513196E-003	-1.8025944E-003	0
2.310692741626975E+003	9.4658490E-003	-1.7092449E-003	0
2.320692741374354E+003	9.4276723E-003	-1.7069526E-003	0
2.330692741121733E+003	9.4085848E-003	-1.6728858E-003	0
2.340692740869112E+003	9.2367893E-003	-1.6883592E-003	0
2.350692740616490E+003	9.3513196E-003	-1.6985473E-003	0
2.360692740363869E+003	9.3704080E-003	-1.6912882E-003	0
2.370692740111248E+003	9.3894964E-003	-1.6569031E-003	0
2.380692739858627E+003	9.3894964E-003	-1.6524456E-003	0
2.390692739606005E+003	9.2558777E-003	-1.6481795E-003	0
2.400692739353384E+003	9.4276723E-003	-1.6616151E-003	0
2.410692739100763E+003	9.4276723E-003	-1.6211170E-003	0
2.420692738848142E+003	9.4467606E-003	-1.6467785E-003	0
2.430692738595521E+003	9.3322312E-003	-1.6269753E-003	0
2.440692738342899E+003	9.2749661E-003	-1.6230909E-003	0
2.450692738090278E+003	9.3704080E-003	-1.5733597E-003	0
2.460692737837657E+003	9.3894964E-003	-1.6106740E-003	0
2.470692737585036E+003	9.3322312E-003	-1.6156407E-003	0
2.480692737332414E+003	9.3704080E-003	-1.5876233E-003	0
2.490692737079793E+003	9.4276723E-003	-1.5955191E-003	0
2.500692736827172E+003	9.3704080E-003	-1.5820835E-003	0
2.510692736574551E+003	9.3704080E-003	-1.5590963E-003	0
2.520692736321929E+003	9.3704080E-003	-1.5303785E-003	0
2.530692736069308E+003	9.3513196E-003	-1.5581412E-003	0
2.540692735816687E+003	9.4085848E-003	-1.5073912E-003	0
2.550692735564066E+003	9.4467606E-003	-1.5171337E-003	0
2.560692735311444E+003	9.2749661E-003	-1.5059903E-003	0
2.570692735058823E+003	9.3513196E-003	-1.5143320E-003	0
2.580692734806202E+003	9.3322312E-003	-1.5252843E-003	0
2.590692734553581E+003	9.3131429E-003	-1.4677846E-003	0
2.600692734300959E+003	9.4085848E-003	-1.4741522E-003	0
2.610692734048338E+003	9.3704080E-003	-1.4832580E-003	0
2.620692733795717E+003	9.3704080E-003	-1.4663837E-003	0
2.630692733543096E+003	9.4658490E-003	-1.4438423E-003	0
2.640692733290474E+003	9.4467606E-003	-1.4409770E-003	0
2.650692733037853E+003	9.3704080E-003	-1.4657469E-003	0
2.660692732785232E+003	9.2749661E-003	-1.4367743E-003	0
2.670692732532611E+003	9.4276723E-003	-1.4561318E-003	0
2.680692732279989E+003	9.3894964E-003	-1.3983775E-003	0
2.690692732027368E+003	9.4276723E-003	-1.4131502E-003	0
2.700692731774747E+003	9.3131429E-003	-1.4135961E-003	0
2.710692731522126E+003	9.3513196E-003	-1.3878072E-003	0
2.720692731269504E+003	9.3322312E-003	-1.4014975E-003	0
2.730692731016883E+003	9.3513196E-003	-1.4106033E-003	0
2.740692730764262E+003	9.3704080E-003	-1.3631007E-003	0
2.750692730511641E+003	9.2940545E-003	-1.3643743E-003	0
2.760692730259019E+003	9.4085848E-003	-1.3706146E-003	0
2.770692730006398E+003	9.2940545E-003	-1.3623367E-003	0
2.780692729753777E+003	9.3704080E-003	-1.3647564E-003	0
2.790692729501156E+003	9.4658490E-003	-1.3628461E-003	0
2.800692729248534E+003	9.4276723E-003	-1.3364841E-003	0
2.810692728995913E+003	9.3894964E-003	-1.3497925E-003	0
2.820692728743292E+003	9.2940545E-003	-1.3257228E-003	0
2.830692728490671E+003	9.3894964E-003	-1.3103768E-003	0
2.840692728238049E+003	9.3704080E-003	-1.3405593E-003	0
2.850692727985428E+003	9.2749661E-003	-1.3206287E-003	0
2.860692727732807E+003	9.3513196E-003	-1.3175723E-003	0
2.870692727480186E+003	9.4276723E-003	-1.2841421E-003	0
2.880692727227564E+003	9.2749661E-003	-1.3311353E-003	0
2.890692726974943E+003	9.4467606E-003	-1.2991061E-003	0
2.900692726722322E+003	9.3131429E-003	-1.3004433E-003	0
2.910692726469701E+003	9.3322312E-003	-1.2984057E-003	0
2.920692726217079E+003	9.3894964E-003	-1.3112682E-003	0
2.930692725964458E+003	9.3322312E-003	-1.2521767E-003	0
2.940692725711837E+003	9.4085848E-003	-1.2777109E-003	0
2.950692725459216E+003	9.3322312E-003	-1.2848426E-003	0
2.960692725206594E+003	9.3513196E-003	-1.2507121E-003	0
2.970692724953973E+003	9.3894964E-003	-1.2437714E-003	0
2.980692724701352E+003	9.3513196E-003	-1.2512215E-003	0
2.990692724448731E+003	9.3513196E-003	-1.2614734E-003	0
3.000692724196109E+003	9.4085848E-003	-1.2558700E-003	0
3.010692723943488E+003	9.2749661E-003	-1.2046742E-003	0
3.020692723690867E+003	9.3513196E-003	-1.2373402E-003	0
3.030692723438246E+003	9.4849374E-003	-1.2124426E-003	0
3.040692723185624E+003	9.3894964E-003	-1.2552968E-003	0
3.050692722933003E+003	9.3704080E-003	-1.2111055E-003	0
3.060692722680382E+003	9.2749661E-003	-1.2363213E-003	0
3.070692722427761E+003	9.3894964E-003	-1.2009173E-003	0
3.080692722175139E+003	9.4276723E-003	-1.2247959E-003	0
3.090692721922518E+003	9.2177009E-003	-1.2023819E-003	0
3.100692721669897E+003	9.3513196E-003	-1.2048016E-003	0
3.110692721417276E+003	9.3513196E-003	-1.1874816E-003	0
3.120692721164654E+003	9.3894964E-003	-1.1714988E-003	0
3.130692720912033E+003	9.2940545E-003	-1.1883731E-003	0
3.140692720659412E+003	9.3322312E-003	-1.1527144E-003	0
3.150692720406791E+003	9.5040258E-003	-1.1290269E-003	0
3.160692720154169E+003	9.4085848E-003	-1.1599098E-003	0
3.170692719901548E+003	9.1986125E-003	-1.1893283E-003	0
3.180692719648927E+003	9.3513196E-003	-1.1784396E-003	0
3.190692719396306E+003	9.4085848E-003	-1.1809866E-003	0
3.200692719143684E+003	9.3513196E-003	-1.1725815E-003	0
3.210692718891063E+003	9.3322312E-003	-1.1516956E-003	0
3.220692718638442E+003	9.3894964E-003	-1.1299183E-003	0
3.230692718385821E+003	9.3513196E-003	-1.1347578E-003	0
3.240692718133199E+003	9.3704080E-003	-1.1410617E-003	0
3.250692717880578E+003	9.3704080E-003	-1.1167373E-003	0
3.260692717627957E+003	9.3322312E-003	-1.1374321E-003	0
3.270692717375336E+003	9.3704080E-003	-1.1490212E-003	0
3.280692717122714E+003	9.4849374E-003	-1.0953421E-003	0
3.290692716870093E+003	9.3322312E-003	-1.1416983E-003	0
3.300692716617472E+003	9.3131429E-003	-1.1089051E-003	0
3.310692716364851E+003	9.4085848E-003	-1.1224045E-003	0
3.320692716112229E+003	9.3322312E-003	-1.0962972E-003	0
3.330692715859608E+003	9.3704080E-003	-1.0989716E-003	0
3.340692715606987E+003	9.3894964E-003	-1.1337388E-003	0
3.350692715354366E+003	9.4085848E-003	-1.0873189E-003	0
3.360692715101744E+003	9.3322312E-003	-1.0461203E-003	0
3.370692714849123E+003	9.3322312E-003	-1.1263525E-003	0
3.380692714596502E+003	9.4276723E-003	-1.1169920E-003	0
3.390692714343881E+003	9.2749661E-003	-1.0800597E-003	0
3.400692714091259E+003	9.2940545E-003	-1.0750293E-003	0
3.410692713838638E+003	9.2749661E-003	-1.0376513E-003	0
3.420692713586017E+003	9.3131429E-003	-1.0716545E-003	0
3.430692713333396E+003	9.3322312E-003	-1.0739468E-003	0
3.440692713080774E+003	9.3322312E-003	-1.0645227E-003	0
3.450692712828153E+003	9.3322312E-003	-1.0761118E-003	0
3.460692712575532E+003	9.3894964E-003	-1.0384792E-003	0
3.470692712322911E+003	9.3513196E-003	-1.0835620E-003	0
3.480692712070289E+003	9.3704080E-003	-1.0131359E-003	0
3.490692711817668E+003	9.4085848E-003	-1.0534429E-003	0
3.500692711565047E+003	9.3322312E-003	-1.0657962E-003	0
3.510692711312426E+003	9.3894964E-003	-1.0126901E-003	0
3.520692711059804E+003	9.3131429E-003	-1.0500682E-003	0
3.530692710807183E+003	9.4467606E-003	-1.0275268E-003	0
3.540692710554562E+003	9.4276723E-003	-1.0295007E-003	0
3.550692710301941E+003	9.2940545E-003	-1.0496224E-003	0
3.560692710049319E+003	9.2940545E-003	-1.0252345E-003	0
3.570692709796698E+003	9.4276723E-003	-1.0130722E-003	0
3.580692709544077E+003	9.3131429E-003	-1.0228783E-003	0
3.590692709291456E+003	9.3704080E-003	-9.7365666E-004	0
3.600692709038834E+003	9.3894964E-003	-1.0055584E-003	0
3.610692708786213E+003	9.3322312E-003	-1.0524242E-003	0
3.620692708533592E+003	9.3322312E-003	-9.7601255E-004	0
3.630692708280971E+003	9.3894964E-003	-1.0078509E-003	0
3.640692708028349E+003	9.3513196E-003	-9.8034262E-004	0
3.650692707775728E+003	9.3704080E-003	-9.7257405E-004	0
3.660692707523107E+003	9.4085848E-003	-9.6627010E-004	0
3.670692707270486E+003	9.3513196E-003	-1.0075960E-003	0
3.680692707017864E+003	9.3704080E-003	-9.6429622E-004	0
3.690692706765243E+003	9.4085848E-003	-9.3933509E-004	0
3.700692706512622E+003	9.3131429E-003	-9.5429906E-004	0
3.710692706260001E+003	9.3322312E-003	-9.5474476E-004	0
3.720692706007379E+003	9.4276723E-003	-9.5308910E-004	0
3.730692705754758E+003	9.3894964E-003	-9.7467541E-004	0
3.740692705502137E+003	9.4085848E-003	-9.5487206E-004	0
3.750692705249516E+003	9.4276723E-003	-9.7244681E-004	0
3.760692704996894E+003	9.3513196E-003	-9.6474186E-004	0
3.770692704744273E+003	9.2940545E-003	-9.6378679E-004	0
3.780692704491652E+003	9.4276723E-003	-9.4678521E-004	0
3.790692704239031E+003	9.4276723E-003	-9.1876765E-004	0
3.800692703986409E+003	9.4658490E-003	-9.5187937E-004	0
3.810692703733788E+003	9.3894964E-003	-9.2914689E-004	0
3.820692703481167E+003	9.3704080E-003	-9.6302264E-004	0
3.830692703228546E+003	9.3131429E-003	-9.2863740E-004	0
3.840692702975924E+003	9.2749661E-003	-9.3857094E-004	0
3.850692702723303E+003	9.2940545E-003	-9.5595460E-004	0
3.860692702470682E+003	9.3513196E-003	-9.1577490E-004	0
3.870692702218061E+003	9.4085848E-003	-9.0635073E-004	0
3.880692701965439E+003	9.3513196E-003	-9.0450421E-004	0
3.890692701712818E+003	9.3704080E-003	-9.2519890E-004	0
3.900692701460197E+003	9.3894964E-003	-9.0813375E-004	0
3.910692701207576E+003	9.3704080E-003	-9.2016853E-004	0
3.920692700954954E+003	9.3894964E-003	-8.9272403E-004	0
3.930692700702333E+003	9.2749661E-003	-8.9896441E-004	0
3.940692700449712E+003	9.3704080E-003	-9.1571116E-004	0
3.950692700197091E+003	9.4085848E-003	-9.1017137E-004	0
3.960692699944470E+003	9.3131429E-003	-8.8005251E-004	0
3.970692699691848E+003	9.3704080E-003	-8.9457066E-004	0
3.980692699439227E+003	9.3894964E-003	-9.0405840E-004	0
3.990692699186606E+003	9.3322312E-003	-8.8068924E-004	0
4.000692698933985E+003	9.3513196E-003	-8.7272975E-004	0
4.010692698681363E+003	9.2367893E-003	-8.7565888E-004	0
4.020692698428742E+003	9.3131429E-003	-8.8068924E-004	0
4.030692698176121E+003	9.3131429E-003	-8.5369055E-004	0
4.040692697923500E+003	9.3322312E-003	-9.0208446E-004	0
4.050692697670878E+003	9.3704080E-003	-9.0705120E-004	0
4.060692697418257E+003	9.4276723E-003	-8.5337204E-004	0
4.070692697165636E+003	9.4467606E-003	-8.4872375E-004	0
4.080692696913015E+003	9.3322312E-003	-8.6852710E-004	0
4.090692696660393E+003	9.3322312E-003	-8.6941855E-004	0
4.100692696469516E+003	9.4467606E-003	-8.8501925E-004	0
4.110692696348444E+003	9.3513196E-003	-8.7572244E-004	0
4.120692696227372E+003	9.3704080E-003	-8.7432162E-004	0
4.130692696106300E+003	9.3131429E-003	-8.4464846E-004	0
4.140692695985228E+003	9.3704080E-003	-8.4140099E-004	0
4.150692695864156E+003	9.3894964E-003	-8.5833884E-004	0
4.160692695743084E+003	9.3704080E-003	-8.4286550E-004	0
4.170692695622012E+003	9.4085848E-003	-8.4343861E-004	0
4.180692695500940E+003	9.3322312E-003	-8.4910583E-004	0
4.190692695379868E+003	9.3513196E-003	-8.3019392E-004	0
4.200692695258796E+003	9.3322312E-003	-8.5248059E-004	0
4.210692695137725E+003	9.4849374E-003	-8.7311177E-004	0
4.220692695016653E+003	9.3513196E-003	-8.4331125E-004	0
4.230692694895581E+003	9.3704080E-003	-8.6298719E-004	0
4.240692694774509E+003	9.3513196E-003	-8.5496402E-004	0
4.250692694653437E+003	9.3513196E-003	-8.2930241E-004	0
4.260692694532365E+003	9.4085848E-003	-8.0574222E-004	0
4.270692694411293E+003	9.3894964E-003	-8.2949351E-004	0
4.280692694290221E+003	9.3513196E-003	-8.7094674E-004	0
4.290692694169149E+003	9.4658490E-003	-8.3127647E-004	0
4.300692694048077E+003	9.3513196E-003	-8.2745589E-004	0
4.310692693927005E+003	9.4085848E-003	-7.9338904E-004	0
4.320692693805933E+003	9.2940545E-003	-8.0828927E-004	0
4.330692693684861E+003	9.2940545E-003	-8.1026327E-004	0
4.340692693563789E+003	9.3704080E-003	-8.0644269E-004	0
4.350692693442717E+003	9.3131429E-003	-8.3586114E-004	0
4.360692693321645E+003	9.3131429E-003	-8.1306498E-004	0
4.370692693200574E+003	9.3322312E-003	-8.1866852E-004	0
4.380692693079502E+003	9.4085848E-003	-7.9262489E-004	0
4.390692692958430E+003	9.3322312E-003	-7.8421965E-004	0
4.400692692837358E+003	9.3513196E-003	-8.1484794E-004	0
4.410692692716286E+003	9.3131429E-003	-7.9014152E-004	0
4.420692692595214E+003	9.2558777E-003	-8.0249476E-004	0
4.430692692474142E+003	9.2940545E-003	-7.9644553E-004	0
4.440692692353070E+003	9.2558777E-003	-8.0669741E-004	0
4.450692692231998E+003	9.3894964E-003	-8.0523279E-004	0
4.460692692110926E+003	9.3131429E-003	-8.1115472E-004	0
4.470692691989854E+003	9.3131429E-003	-7.8791287E-004	0
4.480692691868782E+003	9.2177009E-003	-7.9007790E-004	0
4.490692691747710E+003	9.3322312E-003	-7.8689406E-004	0
4.500692691626638E+003	9.3704080E-003	-7.7874347E-004	0
4.510692691505566E+003	9.3131429E-003	-7.7473198E-004	0
4.520692691384495E+003	9.3322312E-003	-7.7950757E-004	0
4.530692691263423E+003	9.4276723E-003	-7.6307921E-004	0
4.540692691142351E+003	9.2558777E-003	-7.6167833E-004	0
4.550692691021279E+003	9.3894964E-003	-7.7976234E-004	0
4.560692690900207E+003	9.3322312E-003	-7.7804312E-004	0
4.570692690779135E+003	9.2367893E-003	-7.5798505E-004	0
4.580692690658063E+003	9.2558777E-003	-7.9014152E-004	0
4.590692690536991E+003	9.3322312E-003	-7.3767232E-004	0
4.600692690415919E+003	9.3513196E-003	-7.5658422E-004	0
4.610692690294847E+003	9.3513196E-003	-7.4200233E-004	0
4.620692690173775E+003	9.3704080E-003	-7.4887939E-004	0
4.630692690052703E+003	9.3704080E-003	-7.6709077E-004	0
4.640692689931631E+003	9.3513196E-003	-7.5601105E-004	0
4.650692689810559E+003	9.3513196E-003	-7.5384608E-004	0
4.660692689689487E+003	9.3322312E-003	-7.5836712E-004	0
4.670692689568416E+003	9.4276723E-003	-7.2984019E-004	0
4.680692689447344E+003	9.2940545E-003	-7.4276642E-004	0
4.690692689326272E+003	9.3704080E-003	-7.4817892E-004	0
4.700692689205200E+003	9.3322312E-003	-7.4212969E-004	0
4.710692689084128E+003	9.3131429E-003	-7.5715728E-004	0
4.720692688963056E+003	9.3322312E-003	-7.3754502E-004	0
4.730692688841984E+003	9.2749661E-003	-7.2213530E-004	0
4.740692688720912E+003	9.2940545E-003	-7.8154524E-004	0
4.750692688599840E+003	9.4467606E-003	-7.3283288E-004	0
4.760692688478768E+003	9.3513196E-003	-7.6524419E-004	0
4.770692688357696E+003	9.3322312E-003	-7.4340322E-004	0
4.780692688236624E+003	9.4276723E-003	-7.3671719E-004	0
4.790692688115552E+003	9.4085848E-003	-7.0169521E-004	0
4.800692687994480E+003	9.4276723E-003	-7.1462156E-004	0
4.810692687873408E+003	9.2749661E-003	-7.6428906E-004	0
4.820692687752337E+003	9.3513196E-003	-7.2086183E-004	0
4.830692687631265E+003	9.3131429E-003	-7.1239285E-004	0
4.840692687510193E+003	9.2367893E-003	-7.1283861E-004	0
4.850692687389121E+003	9.4085848E-003	-7.2359986E-004	0
4.860692687268049E+003	9.3513196E-003	-7.1302964E-004	0
4.870692687146977E+003	9.4276723E-003	-7.2901236E-004	0
4.880692687025905E+003	9.3894964E-003	-7.3346967E-004	0
4.890692686904833E+003	9.4085848E-003	-7.5715728E-004	0
4.900692686783761E+003	9.3704080E-003	-7.1404839E-004	0
4.910692686662689E+003	9.3131429E-003	-7.1175606E-004	0
4.920692686541617E+003	9.4085848E-003	-6.9029717E-004	0
4.930692686420545E+003	9.3513196E-003	-6.8991515E-004	0
4.940692686299473E+003	9.3322312E-003	-6.9730158E-004	0
4.950692686178401E+003	9.3131429E-003	-7.0023071E-004	0
4.960692686057329E+003	9.2940545E-003	-7.2130753E-004	0
4.970692685936257E+003	9.4085848E-003	-7.2945812E-004	0
4.980692685815186E+003	9.2940545E-003	-6.9462718E-004	0
4.990692685694114E+003	9.2940545E-003	-6.8590353E-004	0
5.000692685573042E+003	9.2367893E-003	-6.5928680E-004	0
5.010692685451970E+003	9.3704080E-003	-6.9717423E-004	0
5.020692685330898E+003	9.4276723E-003	-6.9328991E-004	0
5.030692685209826E+003	9.2558777E-003	-6.8380218E-004	0
5.040692685088754E+003	9.3513196E-003	-6.9093396E-004	0
5.050692684967682E+003	9.3704080E-003	-6.8418426E-004	0
5.060692684846610E+003	9.3131429E-003	-6.9761998E-004	0
5.070692684725538E+003	9.4085848E-003	-6.9131603E-004	0
5.080692684604466E+003	9.3513196E-003	-7.1201078E-004	0
5.090692684483394E+003	9.3704080E-003	-6.8609451E-004	0
5.100692684362322E+003	9.3131429E-003	-6.9080660E-004	0
5.110692684241250E+003	9.2940545E-003	-6.6839257E-004	0
5.120692684120178E+003	9.3513196E-003	-6.6998438E-004	0
5.130692683999107E+003	9.3131429E-003	-6.9424510E-004	0
5.140692683878035E+003	9.3131429E-003	-6.7374134E-004	0
5.150692683756963E+003	9.2558777E-003	-6.9399038E-004	0
5.160692683635891E+003	9.3131429E-003	-6.3407101E-004	0
5.170692683514819E+003	9.4276723E-003	-7.0271408E-004	0
5.180692683393747E+003	9.3513196E-003	-6.7017548E-004	0
5.190692683272675E+003	9.3322312E-003	-6.7749823E-004	0
5.200692683151603E+003	9.2558777E-003	-6.7431445E-004	0
5.210692683030531E+003	9.3131429E-003	-6.4062967E-004	0
5.220692682909459E+003	9.3894964E-003	-6.6845614E-004	0
5.230692682788387E+003	9.2558777E-003	-6.6552707E-004	0
5.240692682667315E+003	9.2749661E-003	-6.4483233E-004	0
5.250692682546243E+003	9.4085848E-003	-6.7724352E-004	0
5.260692682425171E+003	9.3131429E-003	-6.7189470E-004	0
5.270692682304099E+003	9.2940545E-003	-6.4833451E-004	0
5.280692682183028E+003	9.4276723E-003	-6.5260084E-004	0
5.290692682061956E+003	9.3704080E-003	-6.4801611E-004	0
5.300692681940884E+003	9.2558777E-003	-6.2808546E-004	0
5.310692681819812E+003	9.3704080E-003	-6.5406540E-004	0
5.320692681698740E+003	9.3894964E-003	-6.4094807E-004	0
5.330692681577668E+003	9.3131429E-003	-6.3992920E-004	0
5.340692681456596E+003	9.3131429E-003	-6.2751235E-004	0
5.350692681335524E+003	9.3322312E-003	-6.3808262E-004	0
5.360692681214452E+003	9.3704080E-003	-6.6412624E-004	0
5.370692681093380E+003	9.3513196E-003	-6.1337627E-004	0
5.380692680972308E+003	9.3704080E-003	-6.7068485E-004	0
5.390692680851236E+003	9.3704080E-003	-6.2184519E-004	0
5.400692680730164E+003	9.2749661E-003	-6.2623882E-004	0
5.410692680609092E+003	9.3704080E-003	-6.5807701E-004	0
5.420692680488020E+003	9.3322312E-003	-6.3082355E-004	0
5.430692680366948E+003	9.2940545E-003	-6.2451960E-004	0
5.440692680245877E+003	9.2558777E-003	-6.5915950E-004	0
5.450692680124805E+003	9.3131429E-003	-6.1974383E-004	0
5.460692680003733E+003	9.3704080E-003	-6.0891890E-004	0
5.470692679882661E+003	9.3513196E-003	-6.4928964E-004	0
5.480692679761589E+003	9.3704080E-003	-5.9796654E-004	0
5.490692679640517E+003	9.3513196E-003	-6.3534454E-004	0
5.500692679519445E+003	9.3513196E-003	-6.4400450E-004	0
5.510692679398373E+003	9.2749661E-003	-6.5311021E-004	0
5.520692679277301E+003	9.3322312E-003	-6.3254277E-004	0
5.530692679156229E+003	9.3704080E-003	-6.1630533E-004	0
5.540692679035157E+003	9.3322312E-003	-6.3528086E-004	0
5.550692678914085E+003	9.3322312E-003	-6.0204190E-004	0
5.560692678793013E+003	9.2749661E-003	-6.3152402E-004	0
5.570692678671941E+003	9.3131429E-003	-6.1929814E-004	0
5.580692678550869E+003	9.4467606E-003	-6.1006506E-004	0
5.590692678429798E+003	9.3131429E-003	-6.0751801E-004	0
5.600692678308726E+003	9.4085848E-003	-6.0484360E-004	0
5.610692678187654E+003	9.2749661E-003	-6.0885522E-004	0
5.620692678066582E+003	9.4276723E-003	-6.2483799E-004	0
5.630692677945510E+003	9.3513196E-003	-6.3744589E-004	0
5.640692677824438E+003	9.2940545E-003	-6.1515917E-004	0
5.650692677703366E+003	9.3322312E-003	-6.2038068E-004	0
5.660692677582294E+003	9.4849374E-003	-6.4451393E-004	0
5.670692677461222E+003	9.3513196E-003	-6.0357014E-004	0
5.680692677340150E+003	9.3704080E-003	-5.7688972E-004	0
5.690692677219078E+003	9.4085848E-003	-6.1694212E-004	0
5.700692677098006E+003	9.3131429E-003	-6.0866418E-004	0
5.710692676976934E+003	9.3894964E-003	-5.9134426E-004	0
5.720692676855862E+003	9.4085848E-003	-6.2464696E-004	0
5.730692676734790E+003	9.3513196E-003	-6.0083199E-004	0
5.740692676613719E+003	9.1031715E-003	-6.0070469E-004	0
5.750692676492647E+003	9.3322312E-003	-6.1840669E-004	0
5.760692676371575E+003	9.3131429E-003	-5.7899108E-004	0
5.770692676250503E+003	9.4085848E-003	-5.8497663E-004	0
5.780692676129431E+003	9.4085848E-003	-5.7911844E-004	0
5.790692676008359E+003	9.2940545E-003	-6.0032262E-004	0
5.800692675887287E+003	9.2940545E-003	-6.1993487E-004	0
5.810692675766215E+003	9.4658490E-003	-6.0662656E-004	0
5.820692675645143E+003	9.3894964E-003	-5.8854249E-004	0
5.830692675524071E+003	9.3322312E-003	-6.0267863E-004	0
5.840692675402999E+003	9.2940545E-003	-6.0458895E-004	0
5.850692675281927E+003	9.3131429E-003	-5.9159898E-004	0
5.860692675160855E+003	9.3322312E-003	-5.9873069E-004	0
5.870692675039783E+003	9.4085848E-003	-6.1343989E-004	0
5.880692674918711E+003	9.3894964E-003	-5.8433984E-004	0
5.890692674797639E+003	9.2940545E-003	-5.9478282E-004	0
5.900692674676568E+003	9.3322312E-003	-5.9752085E-004	0
5.910692674555496E+003	9.3322312E-003	-6.1127491E-004	0
5.920692674434424E+003	9.3704080E-003	-5.7536148E-004	0
5.930692674313352E+003	9.3513196E-003	-5.5855099E-004	0
5.940692674192280E+003	9.4085848E-003	-5.4842641E-004	0
5.950692674071208E+003	9.3513196E-003	-5.8281166E-004	0
5.960692673950136E+003	9.3513196E-003	-5.7211402E-004	0
5.970692673829064E+003	9.2749661E-003	-5.9121690E-004	0
5.980692673707992E+003	9.3322312E-003	-5.6918495E-004	0
5.990692673586920E+003	9.4276723E-003	-6.0210557E-004	0
6.000692673465848E+003	9.2749661E-003	-5.7625299E-004	0
6.010692673344776E+003	9.2558777E-003	-5.6237157E-004	0
6.020692673223704E+003	9.3894964E-003	-5.8981602E-004	0
6.030692673102632E+003	9.4467606E-003	-5.6046125E-004	0
6.040692672981560E+003	9.4276723E-003	-5.6288094E-004	0
6.050692672860489E+003	9.3131429E-003	-5.7319651E-004	0
6.060692672739417E+003	9.3513196E-003	-5.7860900E-004	0
6.070692672618345E+003	9.3894964E-003	-5.7638029E-004	0
6.080692672497273E+003	9.4085848E-003	-5.7045842E-004	0
6.090692672376201E+003	9.4658490E-003	-5.7255971E-004	0
6.100692672255129E+003	9.2367893E-003	-5.5014569E-004	0
6.110692672134057E+003	9.3513196E-003	-5.5129186E-004	0
6.120692672012985E+003	9.3131429E-003	-5.8013725E-004	0
6.130692671891913E+003	9.4276723E-003	-5.9115322E-004	0
6.140692671770841E+003	9.2940545E-003	-5.6090695E-004	0
6.150692671649769E+003	9.4467606E-003	-5.6135270E-004	0
6.160692671528697E+003	9.5040258E-003	-5.7033112E-004	0
6.170692671407625E+003	9.3513196E-003	-5.5466674E-004	0
6.180692671286553E+003	9.4276723E-003	-5.5842358E-004	0
6.190692671165481E+003	9.3894964E-003	-5.6905759E-004	0
6.200692671044410E+003	9.4467606E-003	-5.5059145E-004	0
6.210692670923338E+003	9.3513196E-003	-5.5122818E-004	0
6.220692670802266E+003	9.3513196E-003	-5.5753218E-004	0
6.230692670681194E+003	9.2367893E-003	-5.1149417E-004	0
6.240692670560122E+003	9.4276723E-003	-5.7638029E-004	0
6.250692670439050E+003	9.4658490E-003	-5.4530631E-004	0
6.260692670317978E+003	9.3894964E-003	-5.8147445E-004	0
6.270692670196906E+003	9.2749661E-003	-5.3511804E-004	0
6.280692670075834E+003	9.3131429E-003	-5.6434551E-004	0
6.290692669954762E+003	9.4276723E-003	-5.4931792E-004	0
6.300692669833690E+003	9.3513196E-003	-5.5288378E-004	0
6.310692669712618E+003	9.2558777E-003	-5.6001550E-004	0
6.320692669591546E+003	9.3131429E-003	-5.4677081E-004	0
6.330692669470474E+003	9.3704080E-003	-5.3709204E-004	0
6.340692669349402E+003	9.2749661E-003	-5.3868396E-004	0
6.350692669228330E+003	9.3513196E-003	-5.5441202E-004	0
6.360692669107259E+003	9.3704080E-003	-5.3728308E-004	0
6.370692668986187E+003	9.4085848E-003	-5.2938721E-004	0
6.380692668865115E+003	9.3513196E-003	-5.4339605E-004	0
6.390692668744043E+003	9.4276723E-003	-5.1092106E-004	0
6.400692668622971E+003	9.3131429E-003	-5.2919617E-004	0
6.410692668501899E+003	9.3322312E-003	-5.3238001E-004	0
6.420692668380827E+003	9.3513196E-003	-5.4575206E-004	0
6.430692668259755E+003	9.4276723E-003	-5.2989664E-004	0
6.440692668138683E+003	9.3513196E-003	-5.3537282E-004	0
6.450692668017611E+003	9.3704080E-003	-5.5090984E-004	0
6.460692667896539E+003	9.3704080E-003	-5.3925707E-004	0
6.470692667775467E+003	9.4085848E-003	-5.3027872E-004	0
6.480692667654395E+003	9.3894964E-003	-5.3136121E-004	0
6.490692667533323E+003	9.3322312E-003	-4.8602364E-004	0
6.500692667412251E+003	9.4467606E-003	-5.2970561E-004	0
6.510692667291180E+003	9.3704080E-003	-5.3479976E-004	0
6.520692667170108E+003	9.3894964E-003	-5.3715572E-004	0
6.530692667049036E+003	9.3322312E-003	-4.9831317E-004	0
6.540692666927964E+003	9.3322312E-003	-5.5059145E-004	0
6.550692666806892E+003	9.3513196E-003	-5.0773734E-004	0
6.560692666685820E+003	9.3513196E-003	-5.3505442E-004	0
6.570692666564748E+003	9.3513196E-003	-5.0990225E-004	0
6.580692666443676E+003	9.3513196E-003	-5.2149140E-004	0
6.590692666322604E+003	9.4085848E-003	-4.9907726E-004	0
6.600692666201532E+003	9.3894964E-003	-5.2174606E-004	0
6.610692666080460E+003	9.3513196E-003	-4.9481099E-004	0
6.620692665959388E+003	9.2940545E-003	-5.2970561E-004	0
6.630692665838316E+003	9.3704080E-003	-5.1652465E-004	0
6.640692665717244E+003	9.3894964E-003	-5.0824665E-004	0
6.650692665596172E+003	9.3894964E-003	-5.0894712E-004	0
6.660692665475101E+003	9.3513196E-003	-5.0538126E-004	0
6.670692665354029E+003	9.2367893E-003	-5.3537282E-004	0
6.680692665232957E+003	9.2940545E-003	-5.3804723E-004	0
6.690692665111885E+003	9.2177009E-003	-5.1327713E-004	0
6.700692664990813E+003	9.3322312E-003	-4.7895560E-004	0
6.710692664869741E+003	9.2940545E-003	-5.0353468E-004	0
6.720692664748669E+003	9.3894964E-003	-4.8774292E-004	0
6.730692664627597E+003	9.2940545E-003	-4.9812213E-004	0
6.740692664506525E+003	9.4276723E-003	-4.8621467E-004	0
6.750692664385453E+003	9.3704080E-003	-5.2136398E-004	0
6.760692664264381E+003	9.3131429E-003	-4.9372850E-004	0
6.770692664143309E+003	9.4467606E-003	-5.1671563E-004	0
6.780692664022237E+003	9.3322312E-003	-4.8723348E-004	0
6.790692663901165E+003	9.3131429E-003	-4.9602083E-004	0
6.800692663780093E+003	9.2749661E-003	-5.0378934E-004	0
6.810692663659021E+003	9.2749661E-003	-4.8761553E-004	0
6.820692663537950E+003	9.3131429E-003	-5.1830756E-004	0
6.830692663416878E+003	9.3704080E-003	-5.0015980E-004	0
6.840692663295806E+003	9.3894964E-003	-5.0340733E-004	0
6.850692663174734E+003	9.3131429E-003	-5.2295596E-004	0
6.860692663053662E+003	9.3322312E-003	-5.1779818E-004	0
6.870692662932590E+003	9.3131429E-003	-4.9659389E-004	0
6.880692662811518E+003	9.3513196E-003	-4.9875892E-004	0
6.890692662690446E+003	9.3894964E-003	-4.8468643E-004	0
6.900692662569374E+003	9.2940545E-003	-5.2168244E-004	0
6.910692662448302E+003	9.3704080E-003	-4.8213944E-004	0
6.920692662327230E+003	9.3704080E-003	-4.7857352E-004	0
6.930692662206158E+003	9.2940545E-003	-4.8888911E-004	0
6.940692662085086E+003	9.2558777E-003	-4.8494112E-004	0
6.950692661964014E+003	9.3322312E-003	-4.9525674E-004	0
6.960692661842942E+003	9.3704080E-003	-5.1951746E-004	0
6.970692661721871E+003	9.3131429E-003	-4.8430442E-004	0
6.980692661600799E+003	9.2558777E-003	-5.0569966E-004	0
6.990692661479727E+003	9.3894964E-003	-4.9952307E-004	0
7.000692661358655E+003	9.4085848E-003	-4.6793959E-004	0
7.010692661237583E+003	9.3894964E-003	-5.1162153E-004	0
7.020692661116511E+003	9.3131429E-003	-4.7169652E-004	0
7.030692660995439E+003	9.3894964E-003	-4.7297004E-004	0
7.040692660874367E+003	9.3513196E-003	-4.7500763E-004	0
7.050692660753295E+003	9.2367893E-003	-5.0041452E-004	0
7.060692660632223E+003	9.2749661E-003	-4.8385869E-004	0
7.070692660511151E+003	9.3704080E-003	-4.9341016E-004	0
7.080692660390079E+003	9.4085848E-003	-4.8564159E-004	0
7.090692660269007E+003	9.1986125E-003	-5.0722790E-004	0
7.100692660147935E+003	9.3513196E-003	-5.1970844E-004	0
7.110692660026863E+003	9.3894964E-003	-5.1327713E-004	0
7.120692659905792E+003	9.3894964E-003	-4.7965604E-004	0
7.130692659784720E+003	9.4658490E-003	-4.9455633E-004	0
7.140692659663648E+003	9.3894964E-003	-4.7290631E-004	0
7.150692659542576E+003	9.3704080E-003	-4.8787027E-004	0
7.160692659421504E+003	9.2367893E-003	-5.1066640E-004	0
7.170692659300432E+003	9.2558777E-003	-5.0557230E-004	0
7.180692659179360E+003	9.4276723E-003	-4.8551423E-004	0
7.190692659058288E+003	9.3894964E-003	-5.1219459E-004	0
7.200692658937216E+003	9.4467606E-003	-4.7698163E-004	0
7.210692658816144E+003	9.2940545E-003	-4.8449545E-004	0
7.220692658695072E+003	9.3322312E-003	-4.5386713E-004	0
7.230692658574000E+003	9.3894964E-003	-4.8678776E-004	0
7.240692658452928E+003	9.3322312E-003	-5.0289789E-004	0
7.250692658331856E+003	9.3894964E-003	-4.7188753E-004	0
7.260692658210784E+003	9.3704080E-003	-4.9232761E-004	0
7.270692658089713E+003	9.3704080E-003	-4.3521001E-004	0
7.280692657968641E+003	9.3513196E-003	-4.7971972E-004	0
7.290692657847569E+003	9.4085848E-003	-4.5615950E-004	0
7.300692657726497E+003	9.3322312E-003	-4.8857072E-004	0
7.310692657605425E+003	9.3894964E-003	-4.6908576E-004	0
7.320692657484353E+003	9.3513196E-003	-4.8010176E-004	0
7.330692657363281E+003	9.3704080E-003	-4.6341858E-004	0
7.340692657242209E+003	9.3322312E-003	-4.9455633E-004	0
7.350692657121137E+003	9.3894964E-003	-4.7093240E-004	0
7.360692657000065E+003	9.2558777E-003	-4.5756038E-004	0
7.370692656878993E+003	9.3513196E-003	-4.5577745E-004	0
7.380692656757921E+003	9.3322312E-003	-5.0066924E-004	0
7.390692656636849E+003	9.3894964E-003	-4.8831600E-004	0
7.400692656515777E+003	9.2940545E-003	-4.7666323E-004	0
7.410692656394705E+003	9.3322312E-003	-4.8373133E-004	0
7.420692656273633E+003	9.4085848E-003	-4.4890042E-004	0
7.430692656152562E+003	9.3894964E-003	-4.5953429E-004	0
7.440692656031490E+003	9.3513196E-003	-4.3953999E-004	0
7.450692655910418E+003	9.3894964E-003	-4.5705095E-004	0
7.460692655789346E+003	9.2558777E-003	-4.6329122E-004	0
7.470692655668274E+003	9.3704080E-003	-4.6590198E-004	0
7.480692655547202E+003	9.2558777E-003	-4.5482229E-004	0
7.490692655426130E+003	9.3513196E-003	-4.9430161E-004	0
7.500692655305058E+003	9.3894964E-003	-4.7176014E-004	0
7.510692655183986E+003	9.2558777E-003	-4.5335773E-004	0
7.520692655062914E+003	9.3131429E-003	-4.4125924E-004	0
7.524393855018105E+003	9.3704080E-003	-3.9566701E-004	0
7.524394055018100E+003	9.4276723E-003	-4.0445433E-004	0