time/s	Ewe/V	I/mA	error	
1.309494166919380E+003	-9.5200201E-004	-1.9468524E-001	0
1.309494366919374E+003	-4.5599462E-003	-1.9596015E-001	0
1.309494566919369E+003	-6.7324266E-003	-1.9596779E-001	0
1.309494966919359E+003	-8.5460749E-003	-1.9596396E-001	0
1.309495366919349E+003	-9.9588111E-003	-1.9596270E-001	0
1.309495766919339E+003	-1.1295184E-002	-1.9596525E-001	0
1.309496166919329E+003	-1.2612464E-002	-1.9596460E-001	0
1.309496566919319E+003	-1.3834290E-002	-1.9597034E-001	0
1.309496966919309E+003	-1.4884297E-002	-1.9596525E-001	0
1.309497566919294E+003	-1.6487943E-002	-1.9595760E-001	0
1.309497966919284E+003	-1.7499767E-002	-1.9596779E-001	0
1.309498366919273E+003	-1.8511593E-002	-1.9596525E-001	0
1.309498966919258E+003	-1.9809783E-002	-1.9596842E-001	0
1.309499366919248E+003	-2.0821609E-002	-1.9596460E-001	0
1.309499966919233E+003	-2.2062525E-002	-1.9596396E-001	0
1.309500566919218E+003	-2.3379806E-002	-1.9596334E-001	0
1.309501166919203E+003	-2.4563450E-002	-1.9595951E-001	0
1.309501766919188E+003	-2.5899822E-002	-1.9596587E-001	0
1.309502366919172E+003	-2.7026193E-002	-1.9596779E-001	0
1.309502966919157E+003	-2.8248020E-002	-1.9596651E-001	0
1.309503566919142E+003	-2.9393481E-002	-1.9596842E-001	0
1.309504166919127E+003	-3.0424397E-002	-1.9596842E-001	0
1.309504766919112E+003	-3.1665314E-002	-1.9596715E-001	0
1.309505566919092E+003	-3.2982595E-002	-1.9596587E-001	0
1.309506166919076E+003	-3.4089874E-002	-1.9597097E-001	0
1.309506766919061E+003	-3.5139881E-002	-1.9597034E-001	0
1.309507566919041E+003	-3.6495343E-002	-1.9596715E-001	0
1.309508366919021E+003	-3.7793536E-002	-1.9596270E-001	0
1.309509166919001E+003	-3.9187182E-002	-1.9596715E-001	0
1.309509966918980E+003	-4.0485371E-002	-1.9596779E-001	0
1.309510766918960E+003	-4.1745380E-002	-1.9596206E-001	0
1.309511566918940E+003	-4.3062661E-002	-1.9596715E-001	0
1.309512366918920E+003	-4.4322666E-002	-1.9596525E-001	0
1.309513166918900E+003	-4.5372676E-002	-1.9595888E-001	0
1.309513966918879E+003	-4.6651773E-002	-1.9596206E-001	0
1.309514766918859E+003	-4.7835417E-002	-1.9596206E-001	0
1.309515566918839E+003	-4.8923608E-002	-1.9596460E-001	0
1.309516366918819E+003	-5.0049976E-002	-1.9596460E-001	0
1.309516966918804E+003	-5.1061802E-002	-1.9596143E-001	0
1.309517766918783E+003	-5.2092716E-002	-1.9596651E-001	0
1.309518566918763E+003	-5.3219087E-002	-1.9595951E-001	0
1.309519366918743E+003	-5.4307278E-002	-1.9596206E-001	0
1.309520166918723E+003	-5.5319101E-002	-1.9596460E-001	0
1.309520966918702E+003	-5.6560021E-002	-1.9596143E-001	0
1.309521766918682E+003	-5.7629116E-002	-1.9596206E-001	0
1.309522566918662E+003	-5.8793671E-002	-1.9596525E-001	0
1.309523566918637E+003	-5.9881859E-002	-1.9596779E-001	0
1.309524366918617E+003	-6.1180048E-002	-1.9596906E-001	0
1.309525366918591E+003	-6.2249146E-002	-1.9596334E-001	0
1.309526166918571E+003	-6.3413695E-002	-1.9596015E-001	0
1.309526966918551E+003	-6.4444616E-002	-1.9596715E-001	0
1.309528166918521E+003	-6.5780982E-002	-1.9596779E-001	0
1.309528966918500E+003	-6.6926450E-002	-1.9596206E-001	0
1.309529966918475E+003	-6.7957364E-002	-1.9596079E-001	0
1.309530966918450E+003	-6.9141008E-002	-1.9597161E-001	0
1.309531966918425E+003	-7.0401013E-002	-1.9596334E-001	0
1.309532966918399E+003	-7.1565568E-002	-1.9596651E-001	0
1.309533966918374E+003	-7.2730124E-002	-1.9596651E-001	0
1.309534966918349E+003	-7.3856495E-002	-1.9596587E-001	0
1.309535766918329E+003	-7.4868314E-002	-1.9596079E-001	0
1.309536766918303E+003	-7.5994685E-002	-1.9597225E-001	0
1.309537766918278E+003	-7.7159241E-002	-1.9596651E-001	0
1.309538766918253E+003	-7.8285612E-002	-1.9596587E-001	0
1.309539966918222E+003	-7.9431072E-002	-1.9596779E-001	0
1.309540966918197E+003	-8.0557443E-002	-1.9596079E-001	0
1.309541766918177E+003	-8.1569269E-002	-1.9596779E-001	0
1.309542966918147E+003	-8.2695641E-002	-1.9596396E-001	0
1.309544166918116E+003	-8.3917469E-002	-1.9596206E-001	0
1.309545166918091E+003	-8.4967472E-002	-1.9596525E-001	0
1.309546166918066E+003	-8.6112939E-002	-1.9596206E-001	0
1.309547366918036E+003	-8.7258399E-002	-1.9596779E-001	0
1.309548366918010E+003	-8.8422947E-002	-1.9596460E-001	0
1.309549566917980E+003	-8.9453869E-002	-1.9596715E-001	0
1.309550566917955E+003	-9.0465687E-002	-1.9596334E-001	0
1.309551566917929E+003	-9.1477513E-002	-1.9596143E-001	0
1.309552766917899E+003	-9.2546612E-002	-1.9596587E-001	0
1.309553966917869E+003	-9.3672983E-002	-1.9596842E-001	0
1.309555166917839E+003	-9.4818443E-002	-1.9596460E-001	0
1.309556366917808E+003	-9.5906638E-002	-1.9596779E-001	0
1.309557566917778E+003	-9.6956640E-002	-1.9596079E-001	0
1.309558766917748E+003	-9.8197557E-002	-1.9596206E-001	0
1.309559966917717E+003	-9.9247567E-002	-1.9595951E-001	0
1.309561366917682E+003	-1.0046939E-001	-1.9596396E-001	0
1.309562566917652E+003	-1.0157667E-001	-1.9596587E-001	0
1.309563966917616E+003	-1.0268395E-001	-1.9596334E-001	0
1.309565166917586E+003	-1.0377214E-001	-1.9596079E-001	0
1.309566366917556E+003	-1.0482214E-001	-1.9596651E-001	0
1.309567766917520E+003	-1.0587215E-001	-1.9596270E-001	0
1.309568966917490E+003	-1.0688398E-001	-1.9597034E-001	0
1.309570166917460E+003	-1.0795308E-001	-1.9596587E-001	0
1.309571566917424E+003	-1.0896490E-001	-1.9596779E-001	0
1.309572966917389E+003	-1.1007218E-001	-1.9596525E-001	0
1.309574166917359E+003	-1.1112219E-001	-1.9596587E-001	0
1.309575566917323E+003	-1.1217219E-001	-1.9596651E-001	0
1.309576966917288E+003	-1.1322220E-001	-1.9597097E-001	0
1.309578366917252E+003	-1.1431039E-001	-1.9596270E-001	0
1.309579966917212E+003	-1.1553222E-001	-1.9596396E-001	0
1.309581566917172E+003	-1.1658222E-001	-1.9596270E-001	0
1.309582966917136E+003	-1.1774678E-001	-1.9596334E-001	0
1.309584566917096E+003	-1.1875860E-001	-1.9595696E-001	0
1.309585966917060E+003	-1.1978952E-001	-1.9596143E-001	0
1.309587566917020E+003	-1.2089679E-001	-1.9596651E-001	0
1.309589166916980E+003	-1.2198499E-001	-1.9596587E-001	0
1.309590766916939E+003	-1.2313045E-001	-1.9596143E-001	0
1.309592366916899E+003	-1.2418045E-001	-1.9596715E-001	0
1.309593966916858E+003	-1.2521137E-001	-1.9596779E-001	0
1.309595566916818E+003	-1.2624228E-001	-1.9595888E-001	0
1.309597366916772E+003	-1.2734956E-001	-1.9596206E-001	0
1.309599166916727E+003	-1.2843776E-001	-1.9596906E-001	0
1.309600966916682E+003	-1.2946866E-001	-1.9597097E-001	0
1.309602366916646E+003	-1.3051867E-001	-1.9596587E-001	0
1.309604366916596E+003	-1.3164504E-001	-1.9596715E-001	0
1.309606366916545E+003	-1.3265687E-001	-1.9596906E-001	0
1.309607966916505E+003	-1.3385960E-001	-1.9596906E-001	0
1.309610166916449E+003	-1.3504325E-001	-1.9596396E-001	0
1.309612366916394E+003	-1.3622689E-001	-1.9596206E-001	0
1.309614366916343E+003	-1.3725781E-001	-1.9596587E-001	0
1.309616166916298E+003	-1.3826963E-001	-1.9596143E-001	0
1.309617966916252E+003	-1.3931964E-001	-1.9596334E-001	0
1.309620366916191E+003	-1.4046510E-001	-1.9596396E-001	0
1.309622566916136E+003	-1.4155328E-001	-1.9596396E-001	0
1.309624966916075E+003	-1.4277512E-001	-1.9596587E-001	0
1.309627366916015E+003	-1.4390148E-001	-1.9596842E-001	0
1.309629766915954E+003	-1.4497058E-001	-1.9596587E-001	0
1.309632366915888E+003	-1.4621150E-001	-1.9596396E-001	0
1.309634766915828E+003	-1.4724241E-001	-1.9596842E-001	0
1.309637166915767E+003	-1.4827333E-001	-1.9596396E-001	0
1.309639766915701E+003	-1.4934243E-001	-1.9596715E-001	0
1.309641966915646E+003	-1.5046880E-001	-1.9596270E-001	0
1.309644566915580E+003	-1.5149972E-001	-1.9596906E-001	0
1.309647366915509E+003	-1.5253064E-001	-1.9596206E-001	0
1.309649966915444E+003	-1.5354246E-001	-1.9596334E-001	0
1.309652766915373E+003	-1.5459247E-001	-1.9596206E-001	0
1.309655566915302E+003	-1.5569974E-001	-1.9596334E-001	0
1.309658766915221E+003	-1.5680702E-001	-1.9596525E-001	0
1.309661766915146E+003	-1.5787612E-001	-1.9596143E-001	0
1.309664966915065E+003	-1.5900250E-001	-1.9596396E-001	0
1.309668366914979E+003	-1.6014795E-001	-1.9596396E-001	0
1.309671766914893E+003	-1.6123614E-001	-1.9596779E-001	0
1.309675366914802E+003	-1.6230524E-001	-1.9596525E-001	0
1.309678966914711E+003	-1.6350798E-001	-1.9596906E-001	0
1.309683366914600E+003	-1.6457708E-001	-1.9596396E-001	0
1.309686766914514E+003	-1.6558890E-001	-1.9596779E-001	0
1.309690966914408E+003	-1.6663891E-001	-1.9596270E-001	0
1.309695166914302E+003	-1.6778436E-001	-1.9596587E-001	0
1.309699366914196E+003	-1.6879620E-001	-1.9597034E-001	0
1.309703966914080E+003	-1.6980802E-001	-1.9596970E-001	0
1.309708166913973E+003	-1.7091529E-001	-1.9596779E-001	0
1.309712966913852E+003	-1.7194621E-001	-1.9596842E-001	0
1.309718566913711E+003	-1.7295803E-001	-1.9596842E-001	0
1.309724166913569E+003	-1.7396986E-001	-1.9596525E-001	0
1.309729966913423E+003	-1.7505805E-001	-1.9596842E-001	0
1.309736566913256E+003	-1.7606987E-001	-1.9596970E-001	0
1.309743366913084E+003	-1.7711988E-001	-1.9596906E-001	0
1.309751566912877E+003	-1.7813171E-001	-1.9596396E-001	0
1.309759966912665E+003	-1.7916262E-001	-1.9596906E-001	0
1.309771566912372E+003	-1.8021263E-001	-1.9596587E-001	0
1.309786166912003E+003	-1.8126264E-001	-1.9596396E-001	0
1.309866766909967E+003	-1.8023172E-001	-1.9596906E-001	0
1.309877766909689E+003	-1.7921990E-001	-1.9596079E-001	0
1.309886366909472E+003	-1.7811261E-001	-1.9596970E-001	0
1.309894166909275E+003	-1.7708170E-001	-1.9596715E-001	0
1.309901766909083E+003	-1.7606987E-001	-1.9596842E-001	0
1.309908766908906E+003	-1.7500077E-001	-1.9596334E-001	0
1.309915166908744E+003	-1.7395078E-001	-1.9596460E-001	0
1.309920566908608E+003	-1.7288168E-001	-1.9596906E-001	0
1.309926366908461E+003	-1.7186984E-001	-1.9596970E-001	0
1.309931566908330E+003	-1.7074348E-001	-1.9596396E-001	0
1.309937366908183E+003	-1.6969347E-001	-1.9596206E-001	0
1.309941966908067E+003	-1.6868165E-001	-1.9596206E-001	0
1.309946766907946E+003	-1.6751710E-001	-1.9596587E-001	0
1.309951566907825E+003	-1.6642891E-001	-1.9596396E-001	0
1.309956766907693E+003	-1.6539799E-001	-1.9596651E-001	0
1.309961766907567E+003	-1.6419525E-001	-1.9596334E-001	0
1.309965766907466E+003	-1.6318344E-001	-1.9597097E-001	0
1.309970566907345E+003	-1.6215251E-001	-1.9596779E-001	0
1.309975166907228E+003	-1.6114070E-001	-1.9596651E-001	0
1.309979566907117E+003	-1.6003340E-001	-1.9595505E-001	0
1.309983966907006E+003	-1.5892613E-001	-1.9597097E-001	0
1.309988966906880E+003	-1.5779975E-001	-1.9596525E-001	0
1.309993566906764E+003	-1.5678793E-001	-1.9596779E-001	0
1.309997366906668E+003	-1.5571883E-001	-1.9596460E-001	0
1.310001966906551E+003	-1.5470701E-001	-1.9596842E-001	0
1.310006566906435E+003	-1.5367609E-001	-1.9596970E-001	0
1.310010966906324E+003	-1.5262608E-001	-1.9596651E-001	0
1.310016166906193E+003	-1.5146154E-001	-1.9596460E-001	0
1.310021366906061E+003	-1.5033516E-001	-1.9596779E-001	0
1.310025966905945E+003	-1.4932334E-001	-1.9596270E-001	0
1.310030966905819E+003	-1.4825425E-001	-1.9596079E-001	0
1.310036566905677E+003	-1.4708969E-001	-1.9596396E-001	0
1.310041766905546E+003	-1.4603968E-001	-1.9596715E-001	0
1.310046966905415E+003	-1.4495149E-001	-1.9596587E-001	0
1.310052766905268E+003	-1.4386331E-001	-1.9596270E-001	0
1.310057966905137E+003	-1.4277512E-001	-1.9596334E-001	0
1.310063766904990E+003	-1.4176328E-001	-1.9597161E-001	0
1.310069366904849E+003	-1.4075147E-001	-1.9596651E-001	0
1.310075166904702E+003	-1.3970146E-001	-1.9596460E-001	0
1.310081166904551E+003	-1.3867055E-001	-1.9596715E-001	0
1.310087366904394E+003	-1.3756326E-001	-1.9596651E-001	0
1.310094366904217E+003	-1.3649416E-001	-1.9596842E-001	0
1.310101566904035E+003	-1.3548234E-001	-1.9596270E-001	0
1.310107966903874E+003	-1.3447052E-001	-1.9596906E-001	0
1.310114566903707E+003	-1.3345869E-001	-1.9596651E-001	0
1.310122566903505E+003	-1.3242778E-001	-1.9596334E-001	0
1.310130366903308E+003	-1.3141595E-001	-1.9597606E-001	0
1.310138966903090E+003	-1.3028958E-001	-1.9596396E-001	0
1.310148366902853E+003	-1.2925866E-001	-1.9596587E-001	0
1.310157366902626E+003	-1.2815139E-001	-1.9596460E-001	0
1.310168366902348E+003	-1.2712047E-001	-1.9596587E-001	0
1.310177966902105E+003	-1.2607047E-001	-1.9596906E-001	0
1.310189966901802E+003	-1.2498228E-001	-1.9596396E-001	0
1.310202566901484E+003	-1.2397045E-001	-1.9596460E-001	0
1.310214566901181E+003	-1.2290136E-001	-1.9596206E-001	0
1.310229966900792E+003	-1.2188953E-001	-1.9596651E-001	0
1.310244766900418E+003	-1.2083952E-001	-1.9596587E-001	0
1.310261366899998E+003	-1.1980861E-001	-1.9596587E-001	0
1.310279166899549E+003	-1.1879678E-001	-1.9596206E-001	0
1.310298966899049E+003	-1.1772768E-001	-1.9596270E-001	0
1.310320966898493E+003	-1.1671586E-001	-1.9596334E-001	0
1.310346966897836E+003	-1.1570404E-001	-1.9596396E-001	0
1.310374966897129E+003	-1.1461585E-001	-1.9597352E-001	0
1.310406966896320E+003	-1.1360402E-001	-1.9596460E-001	0
1.310448566895269E+003	-1.1257311E-001	-1.9596396E-001	0
1.310490366894213E+003	-1.1154219E-001	-1.9597161E-001	0
1.310546566892794E+003	-1.1043491E-001	-1.9596587E-001	0
1.310616166891035E+003	-1.0936581E-001	-1.9596715E-001	0
1.310706966888742E+003	-1.0833490E-001	-1.9596715E-001	0
1.310824766885766E+003	-1.0726580E-001	-1.9596525E-001	0
1.310977566881906E+003	-1.0623489E-001	-1.9597034E-001	0
1.311240566875262E+003	-1.0520397E-001	-1.9596270E-001	0
1.311777366861701E+003	-1.0419215E-001	-1.9596906E-001	0
1.314813366785005E+003	-1.0520397E-001	-1.9596334E-001	0
1.316455166743530E+003	-1.0623489E-001	-1.9596779E-001	0
1.317969166705283E+003	-1.0724671E-001	-1.9597034E-001	0
1.319570366664833E+003	-1.0827763E-001	-1.9596460E-001	0
1.321188566623954E+003	-1.0928944E-001	-1.9596842E-001	0
1.322816966582817E+003	-1.1030127E-001	-1.9596334E-001	0
1.324650366536502E+003	-1.1131310E-001	-1.9596525E-001	0
1.326426566491631E+003	-1.1232492E-001	-1.9596396E-001	0
1.328357166442860E+003	-1.1337493E-001	-1.9597034E-001	0
1.330488966389006E+003	-1.1440585E-001	-1.9597161E-001	0
1.332658366334203E+003	-1.1545585E-001	-1.9596906E-001	0
1.334884366277969E+003	-1.1646768E-001	-1.9597034E-001	0
1.337204166219366E+003	-1.1747950E-001	-1.9596970E-001	0
1.339640166157827E+003	-1.1849133E-001	-1.9596906E-001	0
1.342288166090933E+003	-1.1950315E-001	-1.9597352E-001	0
1.344986166022776E+003	-1.2051497E-001	-1.9596206E-001	0
1.347761165952674E+003	-1.2152680E-001	-1.9597097E-001	0
1.350510565883218E+003	-1.2253863E-001	-1.9596396E-001	0
1.353471965808407E+003	-1.2355045E-001	-1.9597161E-001	0
1.357119165716271E+003	-1.2463864E-001	-1.9596715E-001	0
1.360743365624716E+003	-1.2568864E-001	-1.9596842E-001	0
1.364479365530337E+003	-1.2670046E-001	-1.9596396E-001	0
1.368251165435053E+003	-1.2771229E-001	-1.9596779E-001	0
1.372380365330740E+003	-1.2876230E-001	-1.9597034E-001	0
1.376772565219784E+003	-1.2977412E-001	-1.9597097E-001	0
1.381049365111743E+003	-1.3078594E-001	-1.9596715E-001	0
1.386251364980330E+003	-1.3183595E-001	-1.9597225E-001	0
1.391459964848749E+003	-1.3284779E-001	-1.9596842E-001	0
1.397002964708721E+003	-1.3385960E-001	-1.9596779E-001	0
1.402596164567425E+003	-1.3487142E-001	-1.9597034E-001	0
1.408596764415837E+003	-1.3590235E-001	-1.9597670E-001	0
1.414793964259283E+003	-1.3695236E-001	-1.9597225E-001	0
1.421227364096761E+003	-1.3800235E-001	-1.9596779E-001	0
1.428089563923408E+003	-1.3907145E-001	-1.9596970E-001	0
1.434756163754995E+003	-1.4008328E-001	-1.9596779E-001	0
1.441625163581470E+003	-1.4109510E-001	-1.9596651E-001	0
1.448708563402528E+003	-1.4214511E-001	-1.9596525E-001	0
1.456447763207019E+003	-1.4315693E-001	-1.9596525E-001	0
1.464252363009859E+003	-1.4418785E-001	-1.9597480E-001	0
1.472007562813946E+003	-1.4519967E-001	-1.9597289E-001	0
1.480652162595565E+003	-1.4623059E-001	-1.9596396E-001	0
1.489354562375724E+003	-1.4726152E-001	-1.9596396E-001	0
1.499152162128215E+003	-1.4827333E-001	-1.9597034E-001	0
1.509152161875594E+003	-1.4913243E-001	-1.9596270E-001	0
1.518992161627015E+003	-1.5018244E-001	-1.9596906E-001	0
1.528992161374394E+003	-1.5088880E-001	-1.9596906E-001	0
1.538992161121772E+003	-1.5161426E-001	-1.9596587E-001	0
1.548992160869151E+003	-1.5224427E-001	-1.9596587E-001	0
1.558992160616530E+003	-1.5291245E-001	-1.9597542E-001	0
1.568992160363909E+003	-1.5361883E-001	-1.9597161E-001	0
1.578992160111287E+003	-1.5424882E-001	-1.9595951E-001	0
1.588992159858666E+003	-1.5472610E-001	-1.9596970E-001	0
1.598992159606045E+003	-1.5516520E-001	-1.9597097E-001	0
1.608992159353424E+003	-1.5556611E-001	-1.9597225E-001	0
1.618992159100802E+003	-1.5587157E-001	-1.9596525E-001	0
1.628992158848181E+003	-1.5623429E-001	-1.9597225E-001	0
1.638992158595560E+003	-1.5646338E-001	-1.9596396E-001	0
1.648992158342939E+003	-1.5674976E-001	-1.9596842E-001	0
1.658992158090317E+003	-1.5707430E-001	-1.9596396E-001	0
1.668992157837696E+003	-1.5716976E-001	-1.9596715E-001	0
1.678992157585075E+003	-1.5718885E-001	-1.9597225E-001	0
1.688992157332454E+003	-1.5743703E-001	-1.9597161E-001	0
1.698992157079832E+003	-1.5749431E-001	-1.9596525E-001	0
1.708992156827211E+003	-1.5772340E-001	-1.9596970E-001	0
1.718992156574590E+003	-1.5778066E-001	-1.9596715E-001	0
1.728992156321969E+003	-1.5768521E-001	-1.9597225E-001	0
1.738992156069347E+003	-1.5778066E-001	-1.9596842E-001	0
1.748992155816726E+003	-1.5768521E-001	-1.9597289E-001	0
1.758992155564105E+003	-1.5774249E-001	-1.9596970E-001	0
1.768992155311484E+003	-1.5774249E-001	-1.9597034E-001	0
1.778992155058862E+003	-1.5774249E-001	-1.9597352E-001	0
1.788992154806241E+003	-1.5762794E-001	-1.9597289E-001	0
1.798992154553620E+003	-1.5753248E-001	-1.9596970E-001	0
1.808992154300999E+003	-1.5753248E-001	-1.9596587E-001	0
1.818992154048377E+003	-1.5732248E-001	-1.9596270E-001	0
1.828992153795756E+003	-1.5722702E-001	-1.9597097E-001	0
1.838992153543135E+003	-1.5703611E-001	-1.9596651E-001	0
1.848992153290514E+003	-1.5695976E-001	-1.9596651E-001	0
1.858992153037892E+003	-1.5686430E-001	-1.9597161E-001	0
1.868992152785271E+003	-1.5665430E-001	-1.9597289E-001	0
1.878992152532650E+003	-1.5653975E-001	-1.9596651E-001	0
1.888992152280029E+003	-1.5644430E-001	-1.9596842E-001	0
1.898992152027407E+003	-1.5632975E-001	-1.9597161E-001	0
1.908992151774786E+003	-1.5610066E-001	-1.9596906E-001	0
1.918992151522165E+003	-1.5592884E-001	-1.9596970E-001	0
1.928992151269544E+003	-1.5587157E-001	-1.9596906E-001	0
1.938992151016922E+003	-1.5556611E-001	-1.9597289E-001	0
1.948992150764301E+003	-1.5568066E-001	-1.9597161E-001	0
1.958992150511680E+003	-1.5539429E-001	-1.9596970E-001	0
1.968992150259059E+003	-1.5541337E-001	-1.9596970E-001	0
1.978992150006437E+003	-1.5505065E-001	-1.9597097E-001	0
1.988992149753816E+003	-1.5503156E-001	-1.9597161E-001	0
1.998992149501195E+003	-1.5478337E-001	-1.9596842E-001	0
2.008992149248574E+003	-1.5463065E-001	-1.9596779E-001	0
2.018992148995952E+003	-1.5445882E-001	-1.9596779E-001	0
2.028992148743331E+003	-1.5428701E-001	-1.9596779E-001	0
2.038992148490710E+003	-1.5419155E-001	-1.9597034E-001	0
2.048992148238089E+003	-1.5401973E-001	-1.9596651E-001	0
2.058992147985467E+003	-1.5394337E-001	-1.9597670E-001	0
2.068992147732846E+003	-1.5365700E-001	-1.9597480E-001	0
2.078992147480225E+003	-1.5354246E-001	-1.9596396E-001	0
2.088992147227604E+003	-1.5331337E-001	-1.9596334E-001	0
2.098992146974982E+003	-1.5316063E-001	-1.9597097E-001	0
2.108992146722361E+003	-1.5289336E-001	-1.9597606E-001	0
2.118992146469740E+003	-1.5274063E-001	-1.9597289E-001	0
2.128992146217119E+003	-1.5264519E-001	-1.9596970E-001	0
2.138992145964497E+003	-1.5243518E-001	-1.9596525E-001	0
2.148992145711876E+003	-1.5241608E-001	-1.9596779E-001	0
2.158992145459255E+003	-1.5216790E-001	-1.9596970E-001	0
2.168992145206634E+003	-1.5207244E-001	-1.9597225E-001	0
2.178992144954012E+003	-1.5184335E-001	-1.9597161E-001	0
2.188992144701391E+003	-1.5172881E-001	-1.9596206E-001	0
2.198992144448770E+003	-1.5146154E-001	-1.9597606E-001	0
2.208992144196149E+003	-1.5130880E-001	-1.9597034E-001	0
2.218992143943527E+003	-1.5100335E-001	-1.9596651E-001	0
2.228992143690906E+003	-1.5096517E-001	-1.9596779E-001	0
2.238992143438285E+003	-1.5092699E-001	-1.9597542E-001	0
2.248992143185664E+003	-1.5069789E-001	-1.9596970E-001	0
2.258992142933042E+003	-1.5046880E-001	-1.9597289E-001	0
2.268992142680421E+003	-1.5029699E-001	-1.9596970E-001	0
2.278992142427800E+003	-1.5022062E-001	-1.9597034E-001	0
2.288992142175179E+003	-1.4999153E-001	-1.9597352E-001	0
2.298992141922557E+003	-1.4989607E-001	-1.9596587E-001	0
2.308992141669936E+003	-1.4974335E-001	-1.9597034E-001	0
2.318992141417315E+003	-1.4947607E-001	-1.9597289E-001	0
2.328992141164694E+003	-1.4926606E-001	-1.9596906E-001	0
2.338992140912073E+003	-1.4913243E-001	-1.9596270E-001	0
2.348992140659451E+003	-1.4892243E-001	-1.9596842E-001	0
2.358992140406830E+003	-1.4886515E-001	-1.9597670E-001	0
2.368992140154209E+003	-1.4865515E-001	-1.9596715E-001	0
2.378992139901588E+003	-1.4846425E-001	-1.9597034E-001	0
2.388992139648966E+003	-1.4833060E-001	-1.9597797E-001	0
2.398992139396345E+003	-1.4812061E-001	-1.9597161E-001	0
2.408992139143724E+003	-1.4808242E-001	-1.9597161E-001	0
2.418992138891103E+003	-1.4791061E-001	-1.9596396E-001	0
2.428992138638481E+003	-1.4773878E-001	-1.9596143E-001	0
2.438992138385860E+003	-1.4752878E-001	-1.9596842E-001	0
2.448992138133239E+003	-1.4737606E-001	-1.9596779E-001	0
2.458992137880618E+003	-1.4728060E-001	-1.9595951E-001	0
2.468992137627996E+003	-1.4701332E-001	-1.9596779E-001	0
2.478992137375375E+003	-1.4691786E-001	-1.9596906E-001	0
2.488992137122754E+003	-1.4678423E-001	-1.9596270E-001	0
2.498992136870133E+003	-1.4657423E-001	-1.9596906E-001	0
2.508992136617511E+003	-1.4638332E-001	-1.9597225E-001	0
2.518992136364890E+003	-1.4630696E-001	-1.9596651E-001	0
2.528992136112269E+003	-1.4611605E-001	-1.9597097E-001	0
2.538992135859648E+003	-1.4609696E-001	-1.9596842E-001	0
2.548992135607026E+003	-1.4588696E-001	-1.9596842E-001	0
2.558992135354405E+003	-1.4569604E-001	-1.9597034E-001	0
2.568992135101784E+003	-1.4558150E-001	-1.9597097E-001	0
2.578992134849163E+003	-1.4540967E-001	-1.9597225E-001	0
2.588992134596541E+003	-1.4533332E-001	-1.9596525E-001	0
2.598992134343920E+003	-1.4519967E-001	-1.9597225E-001	0
2.608992134091299E+003	-1.4504695E-001	-1.9597097E-001	0
2.618992133838678E+003	-1.4487512E-001	-1.9596779E-001	0
2.628992133586056E+003	-1.4468423E-001	-1.9597161E-001	0
2.638992133333435E+003	-1.4455058E-001	-1.9596779E-001	0
2.648992133080814E+003	-1.4437877E-001	-1.9596906E-001	0
2.658992132828193E+003	-1.4430240E-001	-1.9596970E-001	0
2.668992132575571E+003	-1.4405422E-001	-1.9596143E-001	0
2.678992132322950E+003	-1.4372967E-001	-1.9596970E-001	0
2.688992132070329E+003	-1.4372967E-001	-1.9596651E-001	0
2.698992131817708E+003	-1.4361513E-001	-1.9596525E-001	0
2.708992131565086E+003	-1.4350058E-001	-1.9596715E-001	0
2.718992131312465E+003	-1.4344330E-001	-1.9596460E-001	0
2.728992131059844E+003	-1.4325239E-001	-1.9597097E-001	0
2.738992130807223E+003	-1.4304239E-001	-1.9596270E-001	0
2.748992130554601E+003	-1.4290875E-001	-1.9596396E-001	0
2.758992130301980E+003	-1.4281330E-001	-1.9596970E-001	0
2.768992130049359E+003	-1.4264148E-001	-1.9596396E-001	0
2.778992129796738E+003	-1.4254603E-001	-1.9597097E-001	0
2.788992129544116E+003	-1.4235511E-001	-1.9597289E-001	0
2.798992129291495E+003	-1.4214511E-001	-1.9596970E-001	0
2.808992129038874E+003	-1.4208783E-001	-1.9596525E-001	0
2.818992128786253E+003	-1.4199239E-001	-1.9596587E-001	0
2.828992128533631E+003	-1.4180148E-001	-1.9596906E-001	0
2.838992128281010E+003	-1.4164874E-001	-1.9596779E-001	0
2.848992128028389E+003	-1.4151511E-001	-1.9596970E-001	0
2.858992127775768E+003	-1.4145784E-001	-1.9597289E-001	0
2.868992127523146E+003	-1.4124784E-001	-1.9597034E-001	0
2.878992127270525E+003	-1.4120965E-001	-1.9596906E-001	0
2.888992127017904E+003	-1.4105693E-001	-1.9596842E-001	0
2.898992126765283E+003	-1.4090419E-001	-1.9596015E-001	0
2.908992126512661E+003	-1.4071329E-001	-1.9596334E-001	0
2.918992126260040E+003	-1.4057964E-001	-1.9596842E-001	0
2.928992126007419E+003	-1.4050329E-001	-1.9597225E-001	0
2.938992125754798E+003	-1.4038874E-001	-1.9597416E-001	0
2.948992125502176E+003	-1.4033146E-001	-1.9596460E-001	0
2.958992125249555E+003	-1.4006419E-001	-1.9596842E-001	0
2.968992124996934E+003	-1.3996874E-001	-1.9597542E-001	0
2.978992124744313E+003	-1.3981600E-001	-1.9596970E-001	0
2.988992124491691E+003	-1.3960600E-001	-1.9597034E-001	0
2.998992124239070E+003	-1.3951054E-001	-1.9596779E-001	0
3.008992123986449E+003	-1.3939600E-001	-1.9596842E-001	0
3.018992123733828E+003	-1.3926236E-001	-1.9597352E-001	0
3.028992123481206E+003	-1.3901418E-001	-1.9596715E-001	0
3.038992123228585E+003	-1.3899510E-001	-1.9596970E-001	0
3.048992122975964E+003	-1.3893782E-001	-1.9597225E-001	0
3.058992122723343E+003	-1.3884236E-001	-1.9596587E-001	0
3.068992122470721E+003	-1.3863236E-001	-1.9596779E-001	0
3.078992122218100E+003	-1.3849872E-001	-1.9597289E-001	0
3.088992121965479E+003	-1.3840327E-001	-1.9596715E-001	0
3.098992121712858E+003	-1.3826963E-001	-1.9596779E-001	0
3.108992121460236E+003	-1.3817418E-001	-1.9596842E-001	0
3.109494121447555E+003	-1.3800235E-001	-1.9596396E-001	0