time/s	Ewe/V	I/mA	error	
6.005299848293362E+001	3.2400548E+000	-2.5031064E-002	0
6.017319847989711E+001	9.4276723E-003	-1.3852582E+001	0
6.017379847988195E+001	9.3704080E-003	-1.3775578E+001	0
6.017439847986680E+001	9.3322312E-003	-1.3720213E+001	0
6.017479847985669E+001	9.3513196E-003	-1.3665484E+001	0
6.017539847984153E+001	9.3894964E-003	-1.3600574E+001	0
6.017579847983143E+001	9.4849374E-003	-1.3549664E+001	0
6.017639847981627E+001	9.3322312E-003	-1.3491117E+001	0
6.017699847980111E+001	9.2749661E-003	-1.3424295E+001	0
6.017759847978596E+001	9.3894964E-003	-1.3354932E+001	0
6.017819847977080E+001	9.4276723E-003	-1.3286837E+001	0
6.017879847975564E+001	9.3513196E-003	-1.3228291E+001	0
6.017919847974554E+001	9.2749661E-003	-1.3174198E+001	0
6.017979847973038E+001	9.4849374E-003	-1.3119470E+001	0
6.018039847971522E+001	9.3894964E-003	-1.3058376E+001	0
6.018099847970007E+001	9.4085848E-003	-1.2994739E+001	0
6.018159847968491E+001	9.3704080E-003	-1.2936191E+001	0
6.018219847966975E+001	9.3513196E-003	-1.2873827E+001	0
6.018279847965459E+001	9.4085848E-003	-1.2807007E+001	0
6.018339847963944E+001	9.3894964E-003	-1.2752914E+001	0
6.018399847962428E+001	9.4085848E-003	-1.2692457E+001	0
6.018459847960912E+001	9.4658490E-003	-1.2619910E+001	0
6.018539847958891E+001	9.4085848E-003	-1.2549907E+001	0
6.018599847957375E+001	9.3704080E-003	-1.2486271E+001	0
6.018659847955860E+001	9.4467606E-003	-1.2429631E+001	0
6.018719847954344E+001	9.3131429E-003	-1.2372994E+001	0
6.018779847952828E+001	9.3894964E-003	-1.2318266E+001	0
6.018839847951313E+001	9.3131429E-003	-1.2258446E+001	0
6.018899847949797E+001	9.3894964E-003	-1.2205626E+001	0
6.018959847948281E+001	9.4276723E-003	-1.2151533E+001	0
6.019019847946765E+001	9.4849374E-003	-1.2087259E+001	0
6.019079847945250E+001	9.4085848E-003	-1.2033803E+001	0
6.019139847943734E+001	9.5994677E-003	-1.1977165E+001	0
6.019199847942218E+001	9.3513196E-003	-1.1924346E+001	0
6.019259847940702E+001	9.4467606E-003	-1.1872162E+001	0
6.019319847939187E+001	9.4658490E-003	-1.1810433E+001	0
6.019399847937166E+001	9.3894964E-003	-1.1744885E+001	0
6.019459847935650E+001	9.4276723E-003	-1.1683793E+001	0
6.019539847933629E+001	9.3704080E-003	-1.1620790E+001	0
6.019599847932113E+001	9.3894964E-003	-1.1566698E+001	0
6.019659847930598E+001	9.4849374E-003	-1.1511333E+001	0
6.019719847929082E+001	9.2940545E-003	-1.1452149E+001	0
6.019799847927061E+001	9.4276723E-003	-1.1395512E+001	0
6.019859847925545E+001	9.3513196E-003	-1.1335691E+001	0
6.019939847923524E+001	9.4085848E-003	-1.1275236E+001	0
6.019999847922008E+001	9.4658490E-003	-1.1224326E+001	0
6.020059847920493E+001	9.5040258E-003	-1.1174051E+001	0
6.020139847918472E+001	9.4276723E-003	-1.1108503E+001	0
6.020199847916956E+001	9.3894964E-003	-1.1056957E+001	0
6.020279847914935E+001	9.3513196E-003	-1.1001592E+001	0
6.020339847913419E+001	9.3894964E-003	-1.0943045E+001	0
6.020399847911904E+001	9.3322312E-003	-1.0889589E+001	0
6.020479847909883E+001	9.5040258E-003	-1.0834224E+001	0
6.020539847908367E+001	9.3894964E-003	-1.0782041E+001	0
6.020619847906346E+001	9.3894964E-003	-1.0727948E+001	0
6.020699847904325E+001	9.3704080E-003	-1.0655400E+001	0
6.020779847902304E+001	9.4085848E-003	-1.0594308E+001	0
6.020859847900283E+001	9.4849374E-003	-1.0537033E+001	0
6.020939847898262E+001	9.3322312E-003	-1.0472758E+001	0
6.020999847896746E+001	9.4085848E-003	-1.0420575E+001	0
6.021099847894220E+001	9.4085848E-003	-1.0357574E+001	0
6.021159847892704E+001	9.3322312E-003	-1.0302844E+001	0
6.021239847890683E+001	9.4276723E-003	-1.0250661E+001	0
6.021319847888662E+001	9.3704080E-003	-1.0191478E+001	0
6.021399847886642E+001	9.3894964E-003	-1.0137385E+001	0
6.021479847884621E+001	9.3894964E-003	-1.0074384E+001	0
6.021559847882600E+001	9.4658490E-003	-1.0014564E+001	0
6.021659847880073E+001	9.3894964E-003	-9.9528341E+000	0
6.021739847878052E+001	9.3322312E-003	-9.8942881E+000	0
6.021819847876031E+001	9.4849374E-003	-9.8382854E+000	0
6.021899847874010E+001	9.3894964E-003	-9.7816486E+000	0
6.021979847871989E+001	9.4467606E-003	-9.7294645E+000	0
6.022059847869969E+001	9.4467606E-003	-9.6690083E+000	0
6.022159847867442E+001	9.4085848E-003	-9.6117344E+000	0
6.022259847864916E+001	9.4658490E-003	-9.5449142E+000	0
6.022339847862895E+001	9.3894964E-003	-9.4914579E+000	0
6.022419847860874E+001	9.4085848E-003	-9.4386387E+000	0
6.022499847858853E+001	9.3704080E-003	-9.3877277E+000	0
6.022579847856832E+001	9.4085848E-003	-9.3368168E+000	0
6.022659847854811E+001	9.3704080E-003	-9.2852707E+000	0
6.022759847852285E+001	9.3894964E-003	-9.2318144E+000	0
6.022839847850264E+001	9.3322312E-003	-9.1732674E+000	0
6.022959847847233E+001	9.3894964E-003	-9.1083565E+000	0
6.023039847845212E+001	9.4849374E-003	-9.0542641E+000	0
6.023119847843191E+001	9.4467606E-003	-9.0033541E+000	0
6.023239847840159E+001	9.3894964E-003	-8.9397154E+000	0
6.023339847837633E+001	9.4276723E-003	-8.8779860E+000	0
6.023439847835107E+001	9.4085848E-003	-8.8264389E+000	0
6.023539847832581E+001	9.4276723E-003	-8.7659826E+000	0
6.023639847830054E+001	9.4085848E-003	-8.7080727E+000	0
6.023739847827528E+001	9.3322312E-003	-8.6533432E+000	0
6.023839847825002E+001	9.4085848E-003	-8.6011600E+000	0
6.023939847822476E+001	9.3704080E-003	-8.5426130E+000	0
6.024059847819444E+001	9.3513196E-003	-8.4789743E+000	0
6.024159847816918E+001	9.3894964E-003	-8.4280643E+000	0
6.024259847814392E+001	9.4276723E-003	-8.3752451E+000	0
6.024359847811866E+001	9.4658490E-003	-8.3211517E+000	0
6.024479847808834E+001	9.5040258E-003	-8.2606964E+000	0
6.024599847805803E+001	9.4658490E-003	-8.2078762E+000	0
6.024699847803277E+001	9.4085848E-003	-8.1506014E+000	0
6.024839847799740E+001	9.4276723E-003	-8.0850554E+000	0
6.024939847797214E+001	9.3131429E-003	-8.0309620E+000	0
6.025059847794182E+001	9.4276723E-003	-7.9768691E+000	0
6.025179847791151E+001	9.4849374E-003	-7.9208679E+000	0
6.025299847788119E+001	9.3704080E-003	-7.8699565E+000	0
6.025399847785593E+001	9.4276723E-003	-7.8088646E+000	0
6.025539847782056E+001	9.5422026E-003	-7.7573171E+000	0
6.025659847779025E+001	9.4085848E-003	-7.6949525E+000	0
6.025819847774983E+001	9.5040258E-003	-7.6287689E+000	0
6.025939847771951E+001	9.3894964E-003	-7.5740404E+000	0
6.026079847768415E+001	9.4276723E-003	-7.5167656E+000	0
6.026199847765383E+001	9.3704080E-003	-7.4645829E+000	0
6.026339847761847E+001	9.3322312E-003	-7.3990355E+000	0
6.026479847758310E+001	9.4085848E-003	-7.3436704E+000	0
6.026639847754268E+001	9.3894964E-003	-7.2825775E+000	0
6.026779847750731E+001	9.4085848E-003	-7.2310309E+000	0
6.026919847747195E+001	9.4085848E-003	-7.1737561E+000	0
6.027019847744668E+001	9.3513196E-003	-7.1234822E+000	0
6.027179847740626E+001	9.5040258E-003	-7.0693898E+000	0
6.027339847736584E+001	9.4467606E-003	-7.0184793E+000	0
6.027459847733553E+001	9.2749661E-003	-6.9662957E+000	0
6.027599847730016E+001	9.4276723E-003	-6.9153852E+000	0
6.027719847726985E+001	9.4085848E-003	-6.8632021E+000	0
6.027879847722943E+001	9.4849374E-003	-6.8091097E+000	0
6.028019847719406E+001	9.3513196E-003	-6.7588353E+000	0
6.028179847715364E+001	9.4276723E-003	-6.7015610E+000	0
6.028319847711828E+001	9.4467606E-003	-6.6506505E+000	0
6.028499847707280E+001	9.4276723E-003	-6.5927396E+000	0
6.028659847703238E+001	9.4085848E-003	-6.5367384E+000	0
6.028839847698691E+001	9.4658490E-003	-6.4794641E+000	0
6.029019847694144E+001	9.4276723E-003	-6.4221892E+000	0
6.029199847689597E+001	9.4276723E-003	-6.3636422E+000	0
6.029359847685555E+001	9.5040258E-003	-6.3120952E+000	0
6.029559847680503E+001	9.4085848E-003	-6.2554574E+000	0
6.029739847675955E+001	9.3513196E-003	-6.2026377E+000	0
6.029899847671913E+001	9.4085848E-003	-6.1447272E+000	0
6.030099847666861E+001	9.3513196E-003	-6.0912714E+000	0
6.030319847661303E+001	9.4276723E-003	-6.0320878E+000	0
6.030499847656756E+001	9.4085848E-003	-5.9818134E+000	0
6.030679847652209E+001	9.4849374E-003	-5.9302669E+000	0
6.030859847647662E+001	9.4085848E-003	-5.8799925E+000	0
6.031079847642104E+001	9.4658490E-003	-5.8220820E+000	0
6.031279847637052E+001	9.4467606E-003	-5.7718077E+000	0
6.031479847631999E+001	9.3894964E-003	-5.7170792E+000	0
6.031699847626442E+001	9.3513196E-003	-5.6629863E+000	0
6.031899847621389E+001	9.4276723E-003	-5.6076207E+000	0
6.032139847615326E+001	9.3131429E-003	-5.5554380E+000	0
6.032339847610274E+001	9.3322312E-003	-5.5032549E+000	0
6.032579847604211E+001	9.3513196E-003	-5.4466166E+000	0
6.032799847598653E+001	9.4849374E-003	-5.3931603E+000	0
6.033059847592085E+001	9.3704080E-003	-5.3346133E+000	0
6.033319847585517E+001	9.3894964E-003	-5.2830663E+000	0
6.033599847578444E+001	9.3704080E-003	-5.2194285E+000	0
6.033879847571370E+001	9.4085848E-003	-5.1646996E+000	0
6.034139847564802E+001	9.4658490E-003	-5.1125159E+000	0
6.034399847558234E+001	9.5040258E-003	-5.0596967E+000	0
6.034659847551666E+001	9.4467606E-003	-5.0087857E+000	0
6.034919847545098E+001	9.2940545E-003	-4.9566026E+000	0
6.035219847537519E+001	9.3704080E-003	-4.9025102E+000	0
6.035499847530446E+001	9.4467606E-003	-4.8522358E+000	0
6.035799847522867E+001	9.3894964E-003	-4.8006892E+000	0
6.036099847515288E+001	9.4849374E-003	-4.7351418E+000	0
6.036479847505689E+001	9.2749661E-003	-4.6842313E+000	0
6.036779847498110E+001	9.4085848E-003	-4.6314116E+000	0
6.037099847490026E+001	9.4467606E-003	-4.5785923E+000	0
6.037459847480932E+001	9.4467606E-003	-4.5206814E+000	0
6.037819847471837E+001	9.4276723E-003	-4.4704065E+000	0
6.038179847462743E+001	9.3894964E-003	-4.4182239E+000	0
6.038539847453649E+001	9.3894964E-003	-4.3666768E+000	0
6.038919847444049E+001	9.3704080E-003	-4.3132210E+000	0
6.039299847434449E+001	9.4276723E-003	-4.2629466E+000	0
6.039719847423839E+001	9.3322312E-003	-4.1999450E+000	0
6.040199847411714E+001	9.3894964E-003	-4.1464887E+000	0
6.040559847402619E+001	9.4085848E-003	-4.0936694E+000	0
6.041039847390493E+001	9.3704080E-003	-4.0363946E+000	0
6.041499847378873E+001	9.3894964E-003	-3.9861209E+000	0
6.041939847367757E+001	9.3513196E-003	-3.9358463E+000	0
6.042379847356642E+001	9.3131429E-003	-3.8849359E+000	0
6.042819847345527E+001	9.3894964E-003	-3.8340254E+000	0
6.043339847332390E+001	9.4276723E-003	-3.7824788E+000	0
6.043879847318749E+001	9.4276723E-003	-3.7290225E+000	0
6.044459847304097E+001	9.4658490E-003	-3.6755667E+000	0
6.044919847292476E+001	9.3513196E-003	-3.6208375E+000	0
6.045599847275298E+001	9.4276723E-003	-3.5673814E+000	0
6.046159847261151E+001	9.3513196E-003	-3.5132892E+000	0
6.046759847245994E+001	9.2749661E-003	-3.4630151E+000	0
6.050359847155050E+001	9.2940545E-003	-3.2030959E+000	0
6.051079847136862E+001	9.3704080E-003	-3.1512423E+000	0
6.051839847117662E+001	9.4085848E-003	-3.1004062E+000	0
6.052599847098463E+001	9.3704080E-003	-3.0495703E+000	0
6.053419847077748E+001	9.4276723E-003	-2.9991162E+000	0
6.054239847057033E+001	9.5040258E-003	-2.9485345E+000	0
6.055099847035308E+001	9.3894964E-003	-2.8978894E+000	0
6.055999847012572E+001	9.3704080E-003	-2.8474987E+000	0
6.056939846988826E+001	9.4658490E-003	-2.7974262E+000	0
6.057919846964069E+001	9.2940545E-003	-2.7461445E+000	0
6.058939846938301E+001	9.4085848E-003	-2.6957541E+000	0
6.059979846912029E+001	9.4658490E-003	-2.6456182E+000	0
6.061079846884240E+001	9.4085848E-003	-2.5956092E+000	0
6.062239846854936E+001	9.4467606E-003	-2.5454729E+000	0
6.063439846824622E+001	9.3704080E-003	-2.4947643E+000	0
6.064719846792286E+001	9.3513196E-003	-2.4436102E+000	0
6.066079846757930E+001	9.3704080E-003	-2.3922017E+000	0
6.067499846722058E+001	9.4085848E-003	-2.3418746E+000	0
6.068959846685175E+001	9.4658490E-003	-2.2911658E+000	0
6.070559846644755E+001	9.2749661E-003	-2.2395663E+000	0
6.072219846602820E+001	9.3704080E-003	-2.1893029E+000	0
6.073939846559369E+001	9.3704080E-003	-2.1389759E+000	0
6.075799846512382E+001	9.3513196E-003	-2.0889671E+000	0
6.077799846461858E+001	9.3513196E-003	-2.0373676E+000	0
6.079899846408807E+001	9.3894964E-003	-1.9869769E+000	0
6.082139846352220E+001	9.2940545E-003	-1.9367133E+000	0
6.084559846291086E+001	9.2940545E-003	-1.8865136E+000	0
6.087059846227930E+001	9.4467606E-003	-1.8364412E+000	0
6.089839846157702E+001	9.4085848E-003	-1.7863687E+000	0
6.092779846083431E+001	9.4276723E-003	-1.7360417E+000	0
6.095939846003603E+001	9.4276723E-003	-1.6856511E+000	0
6.099479845914175E+001	9.3513196E-003	-1.6353240E+000	0
6.103179845820705E+001	9.4276723E-003	-1.5853150E+000	0
6.107219845718646E+001	9.5040258E-003	-1.5352428E+000	0
6.111759845603956E+001	9.4085848E-003	-1.4852338E+000	0
6.116639845480677E+001	9.3894964E-003	-1.4352250E+000	0
6.122019845344767E+001	9.3704080E-003	-1.3850251E+000	0
6.128039845192689E+001	9.4085848E-003	-1.3348889E+000	0
6.134659845025453E+001	9.4467606E-003	-1.2848166E+000	0
6.142079844838008E+001	9.4085848E-003	-1.2348077E+000	0
6.150459844626312E+001	9.4276723E-003	-1.1846079E+000	0
6.159879844388342E+001	9.3513196E-003	-1.1343445E+000	0
6.170559844118543E+001	9.4467606E-003	-1.0842085E+000	0
6.182719843811356E+001	9.3894964E-003	-1.0341358E+000	0
6.196899843453139E+001	9.3131429E-003	-9.8406327E-001	0
6.212919843048439E+001	9.3894964E-003	-9.3399078E-001	0
6.231919842568459E+001	9.2940545E-003	-8.8372743E-001	0
6.254259842004103E+001	9.5040258E-003	-8.3308226E-001	0
6.281279841321521E+001	9.4658490E-003	-7.8281885E-001	0
6.313179840515659E+001	9.3322312E-003	-7.3274642E-001	0
6.352179839530436E+001	9.4085848E-003	-6.8261021E-001	0
6.399159838343621E+001	9.4085848E-003	-6.3241053E-001	0
6.459039836830925E+001	9.3513196E-003	-5.8233804E-001	0
6.505279835662805E+001	9.4085848E-003	-5.5097115E-001	0
6.505339835659834E+001	9.4276723E-003	-5.5198914E-001	0
6.589259833539836E+001	9.4467606E-003	-5.0198025E-001	0
6.702579830677132E+001	9.4658490E-003	-4.5197132E-001	0
6.859919826702389E+001	9.3894964E-003	-4.0195140E-001	0
7.068439821434731E+001	9.3322312E-003	-3.5193002E-001	0
7.361099814041518E+001	9.4849374E-003	-3.0189601E-001	0
7.776839803539042E+001	9.4276723E-003	-2.5185552E-001	0
8.400139787793159E+001	9.4658490E-003	-2.0183420E-001	0
9.368939763319213E+001	9.3322312E-003	-1.5182559E-001	0
1.036893973805709E+002	9.4658490E-003	-1.1988907E-001	0
1.136893971279496E+002	9.3704080E-003	-9.8640501E-002	0
1.236893968753284E+002	9.3704080E-003	-8.4171355E-002	0
1.336893966227071E+002	9.3131429E-003	-7.3139675E-002	0
1.436893963700859E+002	9.2940545E-003	-6.4775206E-002	0
1.536893961174646E+002	9.2940545E-003	-5.8008511E-002	0
1.636893958648434E+002	9.3131429E-003	-5.2508578E-002	0
1.736893956122221E+002	9.4276723E-003	-4.7988962E-002	0
1.836893953596009E+002	9.3513196E-003	-4.4340957E-002	0
1.936893951069796E+002	9.5040258E-003	-4.0939741E-002	0
2.036893948543584E+002	9.3322312E-003	-3.8141776E-002	0
2.136893946017371E+002	9.4658490E-003	-3.5506073E-002	0
2.236893943491159E+002	9.4467606E-003	-3.3359077E-002	0
2.336893940964947E+002	9.3894964E-003	-3.1422075E-002	0
2.436893938438734E+002	9.3894964E-003	-2.9730694E-002	0
2.536893935912522E+002	9.3322312E-003	-2.7933681E-002	0
2.636893933386309E+002	9.2940545E-003	-2.6526745E-002	0
2.736893930860097E+002	9.3704080E-003	-2.5261709E-002	0
2.836893928333884E+002	9.3894964E-003	-2.4020219E-002	0
2.936893925807672E+002	9.2940545E-003	-2.2720821E-002	0
3.036893923281459E+002	9.3704080E-003	-2.1940038E-002	0
3.136893920755247E+002	9.2940545E-003	-2.0894539E-002	0
3.236893918229034E+002	9.4085848E-003	-2.0007486E-002	0
3.336893915702822E+002	9.3704080E-003	-1.9188523E-002	0
3.436893913176609E+002	9.3704080E-003	-1.8432556E-002	0
3.536893910650397E+002	9.3704080E-003	-1.7727496E-002	0
3.636893908124184E+002	9.4276723E-003	-1.7019255E-002	0
3.736893905597972E+002	9.4467606E-003	-1.6342832E-002	0
3.836893903071759E+002	9.2940545E-003	-1.5803218E-002	0
3.936893900545547E+002	9.3894964E-003	-1.5230517E-002	0
4.036893898019334E+002	9.4658490E-003	-1.4739265E-002	0
4.136893895493122E+002	9.3894964E-003	-1.4219379E-002	0
4.236893892966909E+002	9.3704080E-003	-1.3805761E-002	0
4.336893890440697E+002	9.4085848E-003	-1.3354599E-002	0
4.436893887914484E+002	9.3513196E-003	-1.2961980E-002	0
4.536893885388272E+002	9.4085848E-003	-1.2511455E-002	0
4.636893882862059E+002	9.3513196E-003	-1.2257557E-002	0
4.736893880335847E+002	9.4467606E-003	-1.1966116E-002	0
4.836893877809634E+002	9.3513196E-003	-1.1495227E-002	0
4.936893875283422E+002	9.2749661E-003	-1.1107062E-002	0
5.036893872757209E+002	9.4276723E-003	-1.0840437E-002	0
5.136893870230997E+002	9.3322312E-003	-1.0529906E-002	0
5.236893867704785E+002	9.3131429E-003	-1.0279190E-002	0
5.336893865178572E+002	9.3704080E-003	-1.0008111E-002	0
5.436893862652360E+002	9.4658490E-003	-9.7185783E-003	0
5.536893860126147E+002	9.3322312E-003	-9.5206769E-003	0
5.636893857599935E+002	9.4085848E-003	-9.2604170E-003	0
5.736893855073722E+002	9.3513196E-003	-9.0141548E-003	0
5.836893852547510E+002	9.3322312E-003	-8.8938875E-003	0
5.936893850021297E+002	9.3513196E-003	-8.5209943E-003	0
6.036893847495085E+002	9.2940545E-003	-8.3746379E-003	0
6.136893844968872E+002	9.3704080E-003	-8.2295528E-003	0
6.236893842442660E+002	9.3513196E-003	-8.0227433E-003	0
6.336893839916447E+002	9.3894964E-003	-7.8159347E-003	0
6.436893837390235E+002	9.4467606E-003	-7.6950309E-003	0
6.536893834864022E+002	9.3704080E-003	-7.5391289E-003	0
6.636893832337810E+002	9.4085848E-003	-7.3482287E-003	0
6.736893829811597E+002	9.3894964E-003	-7.2680498E-003	0
6.836893827285385E+002	9.4085848E-003	-7.0516965E-003	0
6.936893824759172E+002	9.3322312E-003	-6.8347054E-003	0
7.036893822232960E+002	9.3513196E-003	-6.7742537E-003	0
7.136893819706747E+002	9.3894964E-003	-6.6864402E-003	0
7.236893817180535E+002	9.3322312E-003	-6.5521728E-003	0
7.336893814654322E+002	9.4467606E-003	-6.4643584E-003	0
7.436893812128110E+002	9.3704080E-003	-6.3180020E-003	0
7.536893809601897E+002	9.3322312E-003	-6.1875526E-003	0
7.636893807075685E+002	9.3513196E-003	-6.1843712E-003	0
7.736893804549472E+002	9.3513196E-003	-6.2823663E-003	0
7.836893802023260E+002	9.4085848E-003	-5.9056561E-003	0
7.936893799497047E+002	9.4085848E-003	-5.7853889E-003	0
8.036893796970835E+002	9.3704080E-003	-5.6982110E-003	0
8.136893794444622E+002	9.3131429E-003	-5.6275772E-003	0
8.236893791918410E+002	9.2558777E-003	-5.4735839E-003	0
8.336893789392198E+002	9.3513196E-003	-5.4258592E-003	0
8.436893786865985E+002	9.3704080E-003	-5.2915923E-003	0
8.536893784339773E+002	9.3704080E-003	-5.2126870E-003	0
8.636893781813560E+002	9.3322312E-003	-5.1815063E-003	0
8.736893779287348E+002	9.3704080E-003	-5.0256038E-003	0
8.836893776761135E+002	9.3322312E-003	-4.9969684E-003	0
8.936893774234923E+002	9.3894964E-003	-4.8945188E-003	0
9.036893771708710E+002	9.4467606E-003	-4.8557022E-003	0
9.136893769182498E+002	9.3894964E-003	-4.7780694E-003	0
9.236893766656285E+002	9.3513196E-003	-4.6476205E-003	0
9.336893764130073E+002	9.4467606E-003	-4.5407163E-003	0
9.436893761603860E+002	9.4276723E-003	-4.5171720E-003	0
9.536893759077648E+002	9.3513196E-003	-4.5763510E-003	0
9.636893756551435E+002	9.4085848E-003	-4.4641993E-003	0
9.736893754025223E+002	9.4849374E-003	-4.3898895E-003	0
9.836893751499010E+002	9.4467606E-003	-4.3391390E-003	0
9.936893748972798E+002	9.3322312E-003	-4.2648287E-003	0
1.003689374644659E+003	9.3894964E-003	-4.2372574E-003	0
1.013689374392037E+003	9.2940545E-003	-4.1653668E-003	0
1.023689374139416E+003	9.3322312E-003	-4.1118148E-003	0
1.033689373886795E+003	9.4467606E-003	-4.0542511E-003	0
1.043689373634174E+003	9.3322312E-003	-4.0269978E-003	0
1.053689373381552E+003	9.3704080E-003	-3.9432636E-003	0
1.054308973365900E+003	9.4085848E-003	-3.9026381E-003	0
1.054309173365895E+003	9.2177009E-003	-3.9097699E-003	0