time/s	Ewe/V	I/mA	error	
1.054462373362025E+003	6.3233082E-003	-1.9456959E-001	0
1.054462573362020E+003	-2.2563559E-003	-1.9595870E-001	0
1.054462773362015E+003	-9.2861773E-003	-1.9596316E-001	0
1.054462973362010E+003	-1.4707257E-002	-1.9595425E-001	0
1.054463173362004E+003	-1.9345716E-002	-1.9596444E-001	0
1.054463373361999E+003	-2.3449702E-002	-1.9595934E-001	0
1.054463573361994E+003	-2.7286453E-002	-1.9596316E-001	0
1.054463773361989E+003	-3.0741436E-002	-1.9595616E-001	0
1.054463973361984E+003	-3.4081891E-002	-1.9596826E-001	0
1.054464173361979E+003	-3.7059665E-002	-1.9596444E-001	0
1.054464373361974E+003	-3.9884735E-002	-1.9595680E-001	0
1.054464573361969E+003	-4.2518921E-002	-1.9596635E-001	0
1.054464773361964E+003	-4.4924051E-002	-1.9596826E-001	0
1.054464973361959E+003	-4.7023762E-002	-1.9596444E-001	0
1.054465173361954E+003	-4.9409803E-002	-1.9596061E-001	0
1.054465373361949E+003	-5.1414076E-002	-1.9596189E-001	0
1.054465573361944E+003	-5.3246554E-002	-1.9596125E-001	0
1.054465773361939E+003	-5.5079032E-002	-1.9596316E-001	0
1.054465973361934E+003	-5.6548830E-002	-1.9595808E-001	0
1.054466173361929E+003	-5.8324043E-002	-1.9596125E-001	0
1.054466373361924E+003	-5.9736576E-002	-1.9596444E-001	0
1.054466573361919E+003	-6.1149113E-002	-1.9596380E-001	0
1.054466773361914E+003	-6.2408939E-002	-1.9596507E-001	0
1.054466973361908E+003	-6.3630588E-002	-1.9596635E-001	0
1.054467173361903E+003	-6.4814068E-002	-1.9596125E-001	0
1.054467373361898E+003	-6.5863922E-002	-1.9597462E-001	0
1.054467573361893E+003	-6.7009218E-002	-1.9595934E-001	0
1.054467973361883E+003	-6.8822607E-002	-1.9595999E-001	0
1.054468373361873E+003	-7.0597820E-002	-1.9596635E-001	0
1.054468773361863E+003	-7.2067626E-002	-1.9596252E-001	0
1.054469173361853E+003	-7.3556513E-002	-1.9596571E-001	0
1.054469573361843E+003	-7.4816339E-002	-1.9596697E-001	0
1.054469973361833E+003	-7.5999811E-002	-1.9596444E-001	0
1.054470373361823E+003	-7.7011496E-002	-1.9596761E-001	0
1.054470973361807E+003	-7.8366764E-002	-1.9596252E-001	0
1.054471573361792E+003	-7.9893827E-002	-1.9596761E-001	0
1.054472373361772E+003	-8.1306368E-002	-1.9596444E-001	0
1.054472973361757E+003	-8.2451664E-002	-1.9596380E-001	0
1.054473773361737E+003	-8.3616048E-002	-1.9596444E-001	0
1.054474573361716E+003	-8.4837705E-002	-1.9595934E-001	0
1.054475373361696E+003	-8.5906647E-002	-1.9596380E-001	0
1.054476373361671E+003	-8.7032855E-002	-1.9596697E-001	0
1.054477373361646E+003	-8.8082716E-002	-1.9596252E-001	0
1.054478373361620E+003	-8.9304365E-002	-1.9595999E-001	0
1.054479373361595E+003	-9.0316050E-002	-1.9596252E-001	0
1.054480573361565E+003	-9.1346815E-002	-1.9596252E-001	0
1.054481773361535E+003	-9.2358500E-002	-1.9596635E-001	0
1.054482973361504E+003	-9.3427442E-002	-1.9596061E-001	0
1.054484173361474E+003	-9.4496384E-002	-1.9596571E-001	0
1.054485573361439E+003	-9.5546246E-002	-1.9596444E-001	0
1.054486973361403E+003	-9.6653365E-002	-1.9596890E-001	0
1.054488573361363E+003	-9.7703226E-002	-1.9596125E-001	0
1.054489973361327E+003	-9.8848522E-002	-1.9596826E-001	0
1.054491573361287E+003	-9.9917464E-002	-1.9596697E-001	0
1.054492973361252E+003	-1.0108186E-001	-1.9596635E-001	0
1.054494773361206E+003	-1.0218897E-001	-1.9596826E-001	0
1.054496373361166E+003	-1.0333427E-001	-1.9596571E-001	0
1.054497973361125E+003	-1.0434595E-001	-1.9596571E-001	0
1.054499573361085E+003	-1.0543399E-001	-1.9596890E-001	0
1.054501173361044E+003	-1.0654111E-001	-1.9596635E-001	0
1.054502973360999E+003	-1.0774367E-001	-1.9596697E-001	0
1.054504773360954E+003	-1.0875535E-001	-1.9596380E-001	0
1.054506573360908E+003	-1.0978612E-001	-1.9596380E-001	0
1.054508173360868E+003	-1.1091233E-001	-1.9596761E-001	0
1.054510173360817E+003	-1.1213399E-001	-1.9596061E-001	0
1.054511973360772E+003	-1.1314566E-001	-1.9596316E-001	0
1.054513773360726E+003	-1.1427187E-001	-1.9596635E-001	0
1.054515973360671E+003	-1.1537900E-001	-1.9596826E-001	0
1.054517773360625E+003	-1.1650521E-001	-1.9596635E-001	0
1.054519573360580E+003	-1.1751689E-001	-1.9596380E-001	0
1.054521573360529E+003	-1.1852857E-001	-1.9596252E-001	0
1.054523173360489E+003	-1.1954025E-001	-1.9596061E-001	0
1.054525173360438E+003	-1.2070464E-001	-1.9596826E-001	0
1.054527373360383E+003	-1.2171631E-001	-1.9596061E-001	0
1.054529373360332E+003	-1.2284253E-001	-1.9596125E-001	0
1.054531373360282E+003	-1.2387329E-001	-1.9596571E-001	0
1.054533173360236E+003	-1.2494224E-001	-1.9596571E-001	0
1.054535173360186E+003	-1.2599209E-001	-1.9596571E-001	0
1.054537373360130E+003	-1.2709922E-001	-1.9596252E-001	0
1.054539373360079E+003	-1.2814908E-001	-1.9597144E-001	0
1.054541573360024E+003	-1.2925619E-001	-1.9596571E-001	0
1.054543573359973E+003	-1.3026787E-001	-1.9596952E-001	0
1.054545973359913E+003	-1.3133682E-001	-1.9595999E-001	0
1.054548173359857E+003	-1.3252029E-001	-1.9596507E-001	0
1.054550373359802E+003	-1.3360833E-001	-1.9595870E-001	0
1.054552773359741E+003	-1.3467728E-001	-1.9596507E-001	0
1.054554973359685E+003	-1.3570805E-001	-1.9596252E-001	0
1.054557373359625E+003	-1.3679607E-001	-1.9596697E-001	0
1.054559373359574E+003	-1.3780776E-001	-1.9596507E-001	0
1.054561773359514E+003	-1.3893397E-001	-1.9596697E-001	0
1.054564373359448E+003	-1.4009835E-001	-1.9597335E-001	0
1.054566573359392E+003	-1.4111003E-001	-1.9595870E-001	0
1.054569373359322E+003	-1.4219807E-001	-1.9596507E-001	0
1.054571573359266E+003	-1.4320976E-001	-1.9596316E-001	0
1.054574173359200E+003	-1.4424051E-001	-1.9596697E-001	0
1.054576373359145E+003	-1.4527129E-001	-1.9596189E-001	0
1.054578773359084E+003	-1.4630206E-001	-1.9596952E-001	0
1.054581573359013E+003	-1.4744735E-001	-1.9596444E-001	0
1.054584173358948E+003	-1.4845903E-001	-1.9596571E-001	0
1.054586573358887E+003	-1.4948981E-001	-1.9596252E-001	0
1.054588973358826E+003	-1.5059692E-001	-1.9596507E-001	0
1.054591973358751E+003	-1.5172313E-001	-1.9596444E-001	0
1.054594773358680E+003	-1.5273482E-001	-1.9597016E-001	0
1.054597173358619E+003	-1.5382285E-001	-1.9596761E-001	0
1.054599973358549E+003	-1.5483452E-001	-1.9596507E-001	0
1.054602773358478E+003	-1.5586530E-001	-1.9596316E-001	0
1.054605373358412E+003	-1.5699151E-001	-1.9596380E-001	0
1.054608573358331E+003	-1.5809862E-001	-1.9597207E-001	0
1.054611573358256E+003	-1.5914848E-001	-1.9596316E-001	0
1.054614373358185E+003	-1.6016017E-001	-1.9596826E-001	0
1.054617173358114E+003	-1.6126730E-001	-1.9596444E-001	0
1.054619973358043E+003	-1.6231714E-001	-1.9596316E-001	0
1.054623373357957E+003	-1.6338609E-001	-1.9596697E-001	0
1.054626173357887E+003	-1.6445504E-001	-1.9596189E-001	0
1.054629373357806E+003	-1.6558124E-001	-1.9596571E-001	0
1.054632773357720E+003	-1.6668837E-001	-1.9596316E-001	0
1.054635573357649E+003	-1.6771914E-001	-1.9596571E-001	0
1.054638973357563E+003	-1.6876899E-001	-1.9596252E-001	0
1.054642373357477E+003	-1.6993338E-001	-1.9596761E-001	0
1.054645773357392E+003	-1.7098324E-001	-1.9596761E-001	0
1.054648573357321E+003	-1.7201401E-001	-1.9596380E-001	0
1.054652373357225E+003	-1.7304477E-001	-1.9596444E-001	0
1.054655573357144E+003	-1.7409463E-001	-1.9596697E-001	0
1.054658973357058E+003	-1.7510632E-001	-1.9596826E-001	0
1.054661973356982E+003	-1.7617525E-001	-1.9595808E-001	0
1.054665973356881E+003	-1.7720602E-001	-1.9596507E-001	0
1.054669773356785E+003	-1.7833224E-001	-1.9596697E-001	0
1.054673373356694E+003	-1.7942028E-001	-1.9596571E-001	0
1.054676973356603E+003	-1.8047012E-001	-1.9596125E-001	0
1.054680773356507E+003	-1.8157725E-001	-1.9596316E-001	0
1.054684573356411E+003	-1.8260802E-001	-1.9596444E-001	0
1.054688373356315E+003	-1.8363878E-001	-1.9596635E-001	0
1.054692173356219E+003	-1.8468864E-001	-1.9596571E-001	0
1.054695773356128E+003	-1.8570033E-001	-1.9596444E-001	0
1.054699973356022E+003	-1.8678837E-001	-1.9596316E-001	0
1.054704173355916E+003	-1.8783821E-001	-1.9596635E-001	0
1.054708173355815E+003	-1.8890716E-001	-1.9596444E-001	0
1.054712173355714E+003	-1.8991885E-001	-1.9597144E-001	0
1.054716173355613E+003	-1.9094960E-001	-1.9596761E-001	0
1.054720573355502E+003	-1.9196129E-001	-1.9596571E-001	0
1.054724773355396E+003	-1.9301115E-001	-1.9596761E-001	0
1.054729173355285E+003	-1.9408010E-001	-1.9596571E-001	0
1.054733973355163E+003	-1.9520630E-001	-1.9596316E-001	0
1.054738573355047E+003	-1.9625616E-001	-1.9596697E-001	0
1.054743573354921E+003	-1.9732511E-001	-1.9596252E-001	0
1.054748173354805E+003	-1.9835587E-001	-1.9596635E-001	0
1.054752573354694E+003	-1.9942482E-001	-1.9596380E-001	0
1.054758373354547E+003	-2.0043650E-001	-1.9596507E-001	0
1.054762573354441E+003	-2.0148635E-001	-1.9597398E-001	0
1.054767573354315E+003	-2.0251712E-001	-1.9596571E-001	0
1.054772573354188E+003	-2.0356698E-001	-1.9597080E-001	0
1.054777973354052E+003	-2.0459776E-001	-1.9595999E-001	0
1.054783573353910E+003	-2.0566669E-001	-1.9596189E-001	0
1.054789173353769E+003	-2.0677382E-001	-1.9596189E-001	0
1.054794973353622E+003	-2.0784277E-001	-1.9597016E-001	0
1.054799773353501E+003	-2.0887353E-001	-1.9595999E-001	0
1.054805973353345E+003	-2.0990430E-001	-1.9597080E-001	0
1.054811373353208E+003	-2.1093507E-001	-1.9596571E-001	0
1.054817373353057E+003	-2.1200402E-001	-1.9596380E-001	0
1.054823373352905E+003	-2.1305387E-001	-1.9595808E-001	0
1.054830173352733E+003	-2.1410373E-001	-1.9596125E-001	0
1.054835773352592E+003	-2.1511541E-001	-1.9596507E-001	0
1.054842973352410E+003	-2.1614617E-001	-1.9597080E-001	0
1.054849373352248E+003	-2.1715786E-001	-1.9596507E-001	0
1.054855573352092E+003	-2.1820772E-001	-1.9596635E-001	0
1.054862373351920E+003	-2.1921940E-001	-1.9596252E-001	0
1.054869773351733E+003	-2.2026925E-001	-1.9596571E-001	0
1.054876573351561E+003	-2.2128093E-001	-1.9596761E-001	0
1.054884373351364E+003	-2.2238806E-001	-1.9596316E-001	0
1.054892373351162E+003	-2.2341882E-001	-1.9596380E-001	0
1.054899373350985E+003	-2.2443050E-001	-1.9596697E-001	0
1.054907573350778E+003	-2.2544219E-001	-1.9597080E-001	0
1.054915773350571E+003	-2.2651114E-001	-1.9596316E-001	0
1.054924173350359E+003	-2.2752281E-001	-1.9596252E-001	0
1.054932173350157E+003	-2.2853449E-001	-1.9597207E-001	0
1.054941573349919E+003	-2.2969888E-001	-1.9596380E-001	0
1.054952173349651E+003	-2.3082508E-001	-1.9595999E-001	0
1.054962173349399E+003	-2.3185585E-001	-1.9596890E-001	0
1.054971173349171E+003	-2.3288663E-001	-1.9596890E-001	0
1.054981173348919E+003	-2.3391740E-001	-1.9596189E-001	0
1.054991573348656E+003	-2.3494816E-001	-1.9596761E-001	0
1.055002373348383E+003	-2.3597893E-001	-1.9596125E-001	0
1.055013573348100E+003	-2.3699062E-001	-1.9596316E-001	0
1.055024773347817E+003	-2.3805955E-001	-1.9596189E-001	0
1.055037773347489E+003	-2.3910941E-001	-1.9595870E-001	0
1.055051773347135E+003	-2.4014018E-001	-1.9596252E-001	0
1.055064173346822E+003	-2.4119005E-001	-1.9595934E-001	0
1.055078773346453E+003	-2.4222080E-001	-1.9596890E-001	0
1.055093573346079E+003	-2.4328975E-001	-1.9596380E-001	0
1.055108773345695E+003	-2.4430144E-001	-1.9596252E-001	0
1.055125373345276E+003	-2.4533220E-001	-1.9597080E-001	0
1.055143973344806E+003	-2.4643932E-001	-1.9596316E-001	0
1.055164373344291E+003	-2.4745101E-001	-1.9596252E-001	0
1.055185973343745E+003	-2.4859631E-001	-1.9596635E-001	0
1.055210373343129E+003	-2.4960798E-001	-1.9597271E-001	0
1.055238773342411E+003	-2.5061965E-001	-1.9596761E-001	0
1.055271773341578E+003	-2.5166953E-001	-1.9596952E-001	0
1.055316373340451E+003	-2.5268120E-001	-1.9596061E-001	0
1.055397973338389E+003	-2.5373104E-001	-1.9596507E-001	0
1.055631973332478E+003	-2.5271937E-001	-1.9596444E-001	0
1.055750773329477E+003	-2.5168860E-001	-1.9596761E-001	0
1.055849973326971E+003	-2.5067693E-001	-1.9596061E-001	0
1.055950373324435E+003	-2.4966525E-001	-1.9596252E-001	0
1.056039573322181E+003	-2.4865358E-001	-1.9596316E-001	0
1.056130973319872E+003	-2.4764189E-001	-1.9597080E-001	0
1.056237973317169E+003	-2.4659203E-001	-1.9596952E-001	0
1.056333373314759E+003	-2.4558035E-001	-1.9596697E-001	0
1.056439373312081E+003	-2.4454959E-001	-1.9596761E-001	0
1.056541173309510E+003	-2.4346155E-001	-1.9595999E-001	0
1.056660773306488E+003	-2.4241169E-001	-1.9596316E-001	0
1.056783173303396E+003	-2.4138093E-001	-1.9596697E-001	0
1.056905573300304E+003	-2.4035016E-001	-1.9596826E-001	0
1.057036773296990E+003	-2.3933847E-001	-1.9596316E-001	0
1.057176773293453E+003	-2.3832679E-001	-1.9596635E-001	0
1.057312773290018E+003	-2.3731512E-001	-1.9596697E-001	0
1.057467773286102E+003	-2.3626526E-001	-1.9596635E-001	0
1.057638373281792E+003	-2.3525357E-001	-1.9597080E-001	0
1.057807173277528E+003	-2.3424189E-001	-1.9596635E-001	0
1.057993373272824E+003	-2.3321113E-001	-1.9596826E-001	0
1.058182973268034E+003	-2.3218036E-001	-1.9596444E-001	0
1.058382173263002E+003	-2.3116867E-001	-1.9596444E-001	0
1.058604973257374E+003	-2.3015700E-001	-1.9596635E-001	0
1.058817373252008E+003	-2.2914532E-001	-1.9596635E-001	0
1.059058573245915E+003	-2.2811455E-001	-1.9596952E-001	0
1.059324173239205E+003	-2.2710286E-001	-1.9596444E-001	0
1.059597573232299E+003	-2.2607210E-001	-1.9596697E-001	0
1.059879773225170E+003	-2.2506042E-001	-1.9596189E-001	0
1.060194573217217E+003	-2.2404873E-001	-1.9597271E-001	0
1.060510573209234E+003	-2.2299889E-001	-1.9596380E-001	0
1.060840973200888E+003	-2.2196811E-001	-1.9597398E-001	0
1.061231973191010E+003	-2.2095643E-001	-1.9596890E-001	0
1.061614973181335E+003	-2.1994475E-001	-1.9597207E-001	0
1.062039773170603E+003	-2.1891399E-001	-1.9597207E-001	0
1.062498573159013E+003	-2.1790230E-001	-1.9597398E-001	0
1.062968373147145E+003	-2.1689062E-001	-1.9596890E-001	0
1.063521773133165E+003	-2.1587895E-001	-1.9596635E-001	0
1.064071573119276E+003	-2.1486726E-001	-1.9596380E-001	0
1.064675773104012E+003	-2.1385558E-001	-1.9597016E-001	0
1.065333773087390E+003	-2.1284389E-001	-1.9596380E-001	0
1.066086173068383E+003	-2.1179405E-001	-1.9596444E-001	0
1.066865773048688E+003	-2.1074419E-001	-1.9597207E-001	0
1.067809573024846E+003	-2.0969433E-001	-1.9596061E-001	0
1.068806572999660E+003	-2.0866357E-001	-1.9596444E-001	0
1.069920172971528E+003	-2.0761371E-001	-1.9597398E-001	0
1.071144572940597E+003	-2.0660202E-001	-1.9596952E-001	0
1.072433772908029E+003	-2.0555216E-001	-1.9596697E-001	0
1.073951972869676E+003	-2.0454049E-001	-1.9596952E-001	0
1.075763972823901E+003	-2.0352881E-001	-1.9596826E-001	0
1.077802772772397E+003	-2.0249803E-001	-1.9597144E-001	0
1.080170572712581E+003	-2.0148635E-001	-1.9596952E-001	0
1.083377172631575E+003	-2.0045559E-001	-1.9596952E-001	0
1.087372372530648E+003	-1.9944391E-001	-1.9596507E-001	0
1.092548372399891E+003	-1.9841313E-001	-1.9597207E-001	0
1.099563972222662E+003	-1.9740146E-001	-1.9596697E-001	0
1.107854372013229E+003	-1.9638978E-001	-1.9596507E-001	0
1.117818171761523E+003	-1.9535901E-001	-1.9597207E-001	0
1.126424371544112E+003	-1.9434732E-001	-1.9596380E-001	0
1.136424371291490E+003	-1.9356471E-001	-1.9596380E-001	0
1.143473171113423E+003	-1.9255303E-001	-1.9596826E-001	0
1.151811570902777E+003	-1.9152226E-001	-1.9596890E-001	0
1.159316770713180E+003	-1.9051059E-001	-1.9597080E-001	0
1.167445170507839E+003	-1.8949890E-001	-1.9597144E-001	0
1.174854770320657E+003	-1.8846813E-001	-1.9596697E-001	0
1.181978170140705E+003	-1.8745644E-001	-1.9596697E-001	0
1.189098769960823E+003	-1.8644477E-001	-1.9596252E-001	0
1.195838969790551E+003	-1.8543309E-001	-1.9597144E-001	0
1.202774369615348E+003	-1.8438323E-001	-1.9597144E-001	0
1.209185969453378E+003	-1.8337154E-001	-1.9596507E-001	0
1.215593769291503E+003	-1.8230261E-001	-1.9596890E-001	0
1.222801969109409E+003	-1.8127184E-001	-1.9597080E-001	0
1.229423568942133E+003	-1.8026015E-001	-1.9597016E-001	0
1.235662968784512E+003	-1.7924848E-001	-1.9597144E-001	0
1.242455968612907E+003	-1.7823680E-001	-1.9597080E-001	0
1.248872768450805E+003	-1.7720602E-001	-1.9597462E-001	0
1.255434768285035E+003	-1.7619434E-001	-1.9596380E-001	0
1.262405968108927E+003	-1.7514449E-001	-1.9597016E-001	0
1.269109167939590E+003	-1.7413281E-001	-1.9597080E-001	0
1.275738967772108E+003	-1.7312112E-001	-1.9597335E-001	0
1.282557967599845E+003	-1.7207128E-001	-1.9596635E-001	0
1.289788767417180E+003	-1.7105959E-001	-1.9597271E-001	0
1.296641767244058E+003	-1.7002882E-001	-1.9596635E-001	0
1.303520767070280E+003	-1.6899805E-001	-1.9596826E-001	0
1.310814766886018E+003	-1.6798638E-001	-1.9596952E-001	0
1.318017166704070E+003	-1.6695561E-001	-1.9597335E-001	0
1.325442766516484E+003	-1.6594392E-001	-1.9596826E-001	0
1.333083766323456E+003	-1.6491316E-001	-1.9597717E-001	0
1.340359766139649E+003	-1.6390148E-001	-1.9597080E-001	0
1.348018365946176E+003	-1.6285162E-001	-1.9597207E-001	0
1.356098765742048E+003	-1.6182084E-001	-1.9597144E-001	0
1.364114365539557E+003	-1.6080917E-001	-1.9596890E-001	0
1.371803965345302E+003	-1.5974022E-001	-1.9597016E-001	0
1.380486165125971E+003	-1.5867127E-001	-1.9596952E-001	0
1.388749764917215E+003	-1.5765961E-001	-1.9596826E-001	0
1.397317964700764E+003	-1.5664792E-001	-1.9597080E-001	0
1.406278964474390E+003	-1.5563624E-001	-1.9596635E-001	0
1.414452164267917E+003	-1.5462455E-001	-1.9597207E-001	0
1.423599764036830E+003	-1.5361288E-001	-1.9596761E-001	0
1.432342563815968E+003	-1.5260120E-001	-1.9597335E-001	0
1.441461763585598E+003	-1.5157042E-001	-1.9596952E-001	0
1.450436763358870E+003	-1.5055874E-001	-1.9597398E-001	0
1.459721563124316E+003	-1.4954707E-001	-1.9596952E-001	0
1.469072762888085E+003	-1.4851630E-001	-1.9597398E-001	0
1.478764162643260E+003	-1.4750461E-001	-1.9596761E-001	0
1.488304762402244E+003	-1.4649294E-001	-1.9597335E-001	0
1.498141162153755E+003	-1.4544308E-001	-1.9596697E-001	0
1.508141161901134E+003	-1.4462228E-001	-1.9597526E-001	0
1.516538161689008E+003	-1.4357242E-001	-1.9596890E-001	0
1.526458761438393E+003	-1.4252257E-001	-1.9597398E-001	0
1.536458761185771E+003	-1.4189266E-001	-1.9597653E-001	0
1.544198160990258E+003	-1.4086188E-001	-1.9596890E-001	0
1.554198160737637E+003	-1.4025106E-001	-1.9597207E-001	0
1.562477960528471E+003	-1.3923939E-001	-1.9596890E-001	0
1.572477960275850E+003	-1.3868582E-001	-1.9596635E-001	0
1.579944760087223E+003	-1.3765505E-001	-1.9596826E-001	0
1.589944759834601E+003	-1.3702513E-001	-1.9597144E-001	0
1.599580159591191E+003	-1.3599437E-001	-1.9596890E-001	0
1.609580159338570E+003	-1.3540263E-001	-1.9597080E-001	0
1.618951159101838E+003	-1.3435277E-001	-1.9596125E-001	0
1.628951158849217E+003	-1.3370377E-001	-1.9596952E-001	0
1.638951158596596E+003	-1.3295932E-001	-1.9597016E-001	0
1.648951158343974E+003	-1.3232942E-001	-1.9596890E-001	0
1.658564158101130E+003	-1.3129865E-001	-1.9596444E-001	0
1.668564157848508E+003	-1.3078326E-001	-1.9596890E-001	0
1.678564157595887E+003	-1.3007699E-001	-1.9596761E-001	0
1.688564157343266E+003	-1.2944707E-001	-1.9596826E-001	0
1.698324357096702E+003	-1.2841631E-001	-1.9596380E-001	0
1.708324356844081E+003	-1.2790093E-001	-1.9597526E-001	0
1.718324356591460E+003	-1.2717557E-001	-1.9597016E-001	0
1.728324356338839E+003	-1.2667927E-001	-1.9596571E-001	0
1.738324356086217E+003	-1.2595391E-001	-1.9597526E-001	0
1.748324355833596E+003	-1.2541944E-001	-1.9597144E-001	0
1.758324355580975E+003	-1.2484680E-001	-1.9596444E-001	0
1.768324355328354E+003	-1.2415962E-001	-1.9596952E-001	0
1.778324355075732E+003	-1.2370150E-001	-1.9596571E-001	0
1.788324354823111E+003	-1.2309068E-001	-1.9597271E-001	0
1.798324354570490E+003	-1.2244167E-001	-1.9596826E-001	0
1.808324354317869E+003	-1.2196446E-001	-1.9596890E-001	0
1.818324354065247E+003	-1.2133455E-001	-1.9596826E-001	0
1.828324353812626E+003	-1.2087643E-001	-1.9597144E-001	0
1.838324353560005E+003	-1.2028469E-001	-1.9597144E-001	0
1.848324353307384E+003	-1.1975022E-001	-1.9596890E-001	0
1.858324353054762E+003	-1.1917757E-001	-1.9596697E-001	0
1.868324352802141E+003	-1.1866219E-001	-1.9597016E-001	0
1.878324352549520E+003	-1.1839495E-001	-1.9596761E-001	0
1.888324352296899E+003	-1.1778413E-001	-1.9597144E-001	0
1.898324352044277E+003	-1.1730692E-001	-1.9596826E-001	0
1.908324351791656E+003	-1.1690606E-001	-1.9596571E-001	0
1.918324351539035E+003	-1.1639068E-001	-1.9596444E-001	0
1.928324351286414E+003	-1.1591347E-001	-1.9597398E-001	0
1.938324351033792E+003	-1.1541717E-001	-1.9596697E-001	0
1.948324350781171E+003	-1.1501632E-001	-1.9596507E-001	0
1.958324350528550E+003	-1.1469182E-001	-1.9597335E-001	0
1.968324350275929E+003	-1.1427187E-001	-1.9596380E-001	0
1.978324350023307E+003	-1.1381376E-001	-1.9596761E-001	0
1.988324349770686E+003	-1.1326019E-001	-1.9597653E-001	0
1.998324349518065E+003	-1.1282116E-001	-1.9596826E-001	0
2.008324349265444E+003	-1.1245848E-001	-1.9596890E-001	0
2.018324349012822E+003	-1.1215308E-001	-1.9596507E-001	0
2.028324348760201E+003	-1.1188584E-001	-1.9597526E-001	0
2.038324348507580E+003	-1.1135136E-001	-1.9596890E-001	0
2.048324348254959E+003	-1.1091233E-001	-1.9596252E-001	0
2.058324348002338E+003	-1.1051148E-001	-1.9596952E-001	0
2.068324347749716E+003	-1.1024424E-001	-1.9596761E-001	0
2.078324347497095E+003	-1.0988156E-001	-1.9596697E-001	0
2.088324347244474E+003	-1.0955706E-001	-1.9597207E-001	0
2.098324346991853E+003	-1.0927074E-001	-1.9597080E-001	0
2.108324346739231E+003	-1.0883170E-001	-1.9596571E-001	0
2.118324346486610E+003	-1.0839268E-001	-1.9597335E-001	0
2.128324346233989E+003	-1.0803000E-001	-1.9596761E-001	0
2.138324345981368E+003	-1.0783911E-001	-1.9597335E-001	0
2.148324345728746E+003	-1.0740008E-001	-1.9596890E-001	0
2.158324345476125E+003	-1.0705649E-001	-1.9596697E-001	0
2.168324345223504E+003	-1.0673200E-001	-1.9597271E-001	0
2.178324344970883E+003	-1.0646476E-001	-1.9596826E-001	0
2.188324344718261E+003	-1.0625479E-001	-1.9597207E-001	0
2.198324344465640E+003	-1.0593028E-001	-1.9597335E-001	0
2.208324344213019E+003	-1.0572031E-001	-1.9596952E-001	0
2.218324343960398E+003	-1.0543399E-001	-1.9597462E-001	0
2.228324343707776E+003	-1.0512857E-001	-1.9597144E-001	0
2.238324343455155E+003	-1.0491861E-001	-1.9596826E-001	0
2.248324343202534E+003	-1.0459410E-001	-1.9597462E-001	0
2.258324342949913E+003	-1.0432687E-001	-1.9597080E-001	0
2.268324342697291E+003	-1.0411689E-001	-1.9597271E-001	0
2.278324342444670E+003	-1.0388783E-001	-1.9597526E-001	0
2.288324342192049E+003	-1.0356333E-001	-1.9597779E-001	0
2.298324341939428E+003	-1.0327701E-001	-1.9596826E-001	0
2.308324341686806E+003	-1.0308613E-001	-1.9597207E-001	0
2.318324341434185E+003	-1.0278071E-001	-1.9597207E-001	0
2.328324341181564E+003	-1.0258983E-001	-1.9596952E-001	0
2.338324340928943E+003	-1.0230350E-001	-1.9597080E-001	0
2.348324340676321E+003	-1.0207444E-001	-1.9597271E-001	0
2.358324340423700E+003	-1.0186447E-001	-1.9596697E-001	0
2.368324340171079E+003	-1.0153997E-001	-1.9596507E-001	0
2.378324339918458E+003	-1.0142545E-001	-1.9597462E-001	0
2.388324339665836E+003	-1.0117730E-001	-1.9597335E-001	0
2.398324339413215E+003	-1.0091006E-001	-1.9596952E-001	0
2.408324339160594E+003	-1.0062373E-001	-1.9597335E-001	0
2.418324338907973E+003	-1.0047103E-001	-1.9596761E-001	0
2.428324338655351E+003	-1.0026105E-001	-1.9597398E-001	0
2.438324338402730E+003	-1.0001291E-001	-1.9597398E-001	0
2.448324338150109E+003	-9.9726580E-002	-1.9597717E-001	0
2.458324337897488E+003	-9.9592969E-002	-1.9596761E-001	0
2.468324337644866E+003	-9.9363908E-002	-1.9597207E-001	0
2.478324337392245E+003	-9.9173024E-002	-1.9597462E-001	0
2.488324337139624E+003	-9.8943964E-002	-1.9597207E-001	0
2.498324336887003E+003	-9.8772168E-002	-1.9596507E-001	0
2.508324336634381E+003	-9.8428577E-002	-1.9597080E-001	0
2.518324336381760E+003	-9.8199517E-002	-1.9597207E-001	0
2.528324336129139E+003	-9.8065898E-002	-1.9597144E-001	0
2.538324335876518E+003	-9.7951367E-002	-1.9597462E-001	0
2.548324335623896E+003	-9.7703226E-002	-1.9597016E-001	0
2.558324335371275E+003	-9.7531430E-002	-1.9596890E-001	0
2.568324335118654E+003	-9.7245105E-002	-1.9596761E-001	0
2.578324334866033E+003	-9.7206928E-002	-1.9597207E-001	0
2.588324334613411E+003	-9.6996956E-002	-1.9596380E-001	0
2.598324334360790E+003	-9.6691541E-002	-1.9597207E-001	0
2.608324334108169E+003	-9.6557923E-002	-1.9596507E-001	0
2.618324333855548E+003	-9.6290685E-002	-1.9596444E-001	0
2.628324333602926E+003	-9.6157067E-002	-1.9597398E-001	0
2.638324333350305E+003	-9.5947102E-002	-1.9597080E-001	0
2.648324333097684E+003	-9.5832571E-002	-1.9597717E-001	0
2.658324332845063E+003	-9.5660776E-002	-1.9597335E-001	0
2.668324332592441E+003	-9.5584422E-002	-1.9596952E-001	0
2.678324332339820E+003	-9.5431715E-002	-1.9596635E-001	0
2.688324332087199E+003	-9.5164478E-002	-1.9596444E-001	0
2.698324331834578E+003	-9.4839975E-002	-1.9597144E-001	0
2.708324331581956E+003	-9.4763622E-002	-1.9596697E-001	0
2.718324331329335E+003	-9.4591826E-002	-1.9596380E-001	0
2.728324331076714E+003	-9.4362766E-002	-1.9596635E-001	0
2.738324330824093E+003	-9.4343677E-002	-1.9597907E-001	0
2.748324330571471E+003	-9.4210058E-002	-1.9597144E-001	0
2.758324330318850E+003	-9.3942828E-002	-1.9597398E-001	0
2.768324330066229E+003	-9.3904652E-002	-1.9596761E-001	0
2.778324329813608E+003	-9.3599238E-002	-1.9597526E-001	0
2.788324329560986E+003	-9.3637414E-002	-1.9597335E-001	0
2.798324329308365E+003	-9.3274735E-002	-1.9597207E-001	0
2.808324329055744E+003	-9.3217470E-002	-1.9597080E-001	0
2.818324328803123E+003	-9.2873879E-002	-1.9597144E-001	0
2.828324328550501E+003	-9.2702083E-002	-1.9596826E-001	0
2.838324328297880E+003	-9.2625730E-002	-1.9597016E-001	0
2.848324328045259E+003	-9.2453934E-002	-1.9596952E-001	0
2.854462327890200E+003	-9.2263058E-002	-1.9597207E-001	0