time/s	Ewe/V	I/mA	error	
1.504548561991905E+003	7.8823818E-003	-2.4216324E-002	1
1.504560361991607E+003	6.8327878E-003	-2.4215881E-002	0
1.504573961991264E+003	5.6496095E-003	-2.4215942E-002	0
1.504590561990844E+003	4.6000159E-003	-2.4216134E-002	0
1.504607961990405E+003	3.5695059E-003	-2.4217026E-002	0
1.504625761989955E+003	2.4435783E-003	-2.4216324E-002	0
1.504646961989420E+003	1.3749013E-003	-2.4216516E-002	0
1.504666361988930E+003	3.6347477E-004	-2.4215626E-002	0
1.504686761988414E+003	-7.0520223E-004	-2.4216898E-002	0
1.504710161987823E+003	-1.8120463E-003	-2.4216389E-002	0
1.504731761987277E+003	-2.8807232E-003	-2.4216073E-002	0
1.504757361986631E+003	-3.9303168E-003	-2.4215942E-002	0
1.504782561985994E+003	-4.9417429E-003	-2.4216516E-002	0
1.504806761985383E+003	-5.9531694E-003	-2.4216516E-002	0
1.504831161984766E+003	-6.9836793E-003	-2.4216007E-002	0
1.504858761984069E+003	-8.0141891E-003	-2.4216389E-002	0
1.504884961983407E+003	-9.0256156E-003	-2.4215817E-002	0
1.504909961982776E+003	-1.0037042E-002	-2.4215942E-002	0
1.504940961981993E+003	-1.1067552E-002	-2.4215626E-002	0
1.504968561981295E+003	-1.2098062E-002	-2.4216263E-002	0
1.504996761980583E+003	-1.3109488E-002	-2.4216579E-002	0
1.505030161979739E+003	-1.4139999E-002	-2.4215881E-002	0
1.505059161979007E+003	-1.5170508E-002	-2.4216197E-002	0
1.505092361978168E+003	-1.6239185E-002	-2.4215752E-002	0
1.505125361977334E+003	-1.7288778E-002	-2.4216007E-002	0
1.505161761976415E+003	-1.8338371E-002	-2.4216134E-002	0
1.505194961975576E+003	-1.9368881E-002	-2.4216007E-002	0
1.505229561974702E+003	-2.0399392E-002	-2.4215432E-002	0
1.505265961973782E+003	-2.1429902E-002	-2.4216073E-002	0
1.505301761972878E+003	-2.2441328E-002	-2.4215881E-002	0
1.505339561971923E+003	-2.3452755E-002	-2.4215752E-002	0
1.505377561970963E+003	-2.4464181E-002	-2.4215562E-002	0
1.505415961969993E+003	-2.5532858E-002	-2.4215687E-002	0
1.505457561968942E+003	-2.6563369E-002	-2.4216263E-002	0
1.505496361967962E+003	-2.7612962E-002	-2.4214925E-002	0
1.505540161966856E+003	-2.8624387E-002	-2.4215687E-002	0
1.505581961965800E+003	-2.9712148E-002	-2.4216073E-002	0
1.505625361964703E+003	-3.0723576E-002	-2.4216007E-002	0
1.505672361963516E+003	-3.1734999E-002	-2.4216197E-002	0
1.505716561962399E+003	-3.2746427E-002	-2.4216007E-002	0
1.505760361961293E+003	-3.3757854E-002	-2.4215942E-002	0
1.505808561960075E+003	-3.4769282E-002	-2.4215242E-002	0
1.505855961958878E+003	-3.5780706E-002	-2.4215432E-002	0
1.505907561957574E+003	-3.6830299E-002	-2.4216134E-002	0
1.505960761956230E+003	-3.7841726E-002	-2.4216263E-002	0
1.506009561954997E+003	-3.8853154E-002	-2.4215817E-002	0
1.506060161953719E+003	-3.9864581E-002	-2.4215817E-002	0
1.506118361952249E+003	-4.0895090E-002	-2.4216073E-002	0
1.506175161950814E+003	-4.1944683E-002	-2.4216197E-002	0
1.506235761949283E+003	-4.2956110E-002	-2.4215942E-002	0
1.506292761947843E+003	-4.4024788E-002	-2.4215562E-002	0
1.506357961946196E+003	-4.5036212E-002	-2.4216073E-002	0
1.506416561944716E+003	-4.6066724E-002	-2.4215881E-002	0
1.506482761943043E+003	-4.7078148E-002	-2.4216516E-002	0
1.506548761941376E+003	-4.8108660E-002	-2.4216324E-002	0
1.506618161939623E+003	-4.9120087E-002	-2.4215942E-002	0
1.506687161937880E+003	-5.0131511E-002	-2.4216073E-002	0
1.506760761936021E+003	-5.1238358E-002	-2.4215687E-002	0
1.506840961933995E+003	-5.2364282E-002	-2.4215942E-002	0
1.506925361931862E+003	-5.3394794E-002	-2.4216263E-002	0
1.507008761929756E+003	-5.4501638E-002	-2.4216073E-002	0
1.507093361927618E+003	-5.5513065E-002	-2.4216134E-002	0
1.507181761925385E+003	-5.6524489E-002	-2.4215942E-002	0
1.507272761923086E+003	-5.7535917E-002	-2.4215626E-002	0
1.507366561920717E+003	-5.8566429E-002	-2.4216324E-002	0
1.507462561918292E+003	-5.9616022E-002	-2.4216263E-002	0
1.507567961915629E+003	-6.0627446E-002	-2.4215562E-002	0
1.507667361913118E+003	-6.1638873E-002	-2.4215817E-002	0
1.507785961910122E+003	-6.2650301E-002	-2.4215687E-002	0
1.507907161907060E+003	-6.3680805E-002	-2.4216007E-002	0
1.508033961903857E+003	-6.4730398E-002	-2.4216134E-002	0
1.508167161900492E+003	-6.5741830E-002	-2.4216453E-002	0
1.508312161896829E+003	-6.6753253E-002	-2.4216134E-002	0
1.508451561893307E+003	-6.7764685E-002	-2.4215432E-002	0
1.508628161888846E+003	-6.8795189E-002	-2.4215881E-002	0
1.508812361884193E+003	-6.9806620E-002	-2.4216134E-002	0
1.509024561878832E+003	-7.0837125E-002	-2.4216007E-002	0
1.509261161872855E+003	-7.1867637E-002	-2.4216134E-002	0
1.509624161863685E+003	-7.2879061E-002	-2.4216007E-002	0
1.511153961825039E+003	-7.1867637E-002	-2.4215497E-002	0
1.511449161817582E+003	-7.0856214E-002	-2.4215817E-002	0
1.511703761811150E+003	-6.9806620E-002	-2.4216324E-002	0
1.511962361804617E+003	-6.8795189E-002	-2.4215687E-002	0
1.512189561798878E+003	-6.7764685E-002	-2.4216134E-002	0
1.512416761793138E+003	-6.6753253E-002	-2.4216073E-002	0
1.512626561787838E+003	-6.5741830E-002	-2.4215881E-002	0
1.512878161781482E+003	-6.4730398E-002	-2.4216073E-002	0
1.513116761775455E+003	-6.3718975E-002	-2.4215817E-002	0
1.513362761769240E+003	-6.2707551E-002	-2.4216007E-002	0
1.513616761762823E+003	-6.1677042E-002	-2.4216197E-002	0
1.513886361756013E+003	-6.0665615E-002	-2.4215752E-002	0
1.514182761748525E+003	-5.9654187E-002	-2.4216324E-002	0
1.514519761740012E+003	-5.8642760E-002	-2.4216134E-002	0
1.514863761731322E+003	-5.7631336E-002	-2.4215687E-002	0
1.515254361721454E+003	-5.6581743E-002	-2.4216134E-002	0
1.515708361709985E+003	-5.5551231E-002	-2.4216007E-002	0
1.516205561697425E+003	-5.4539803E-002	-2.4216007E-002	0
1.516752961683596E+003	-5.3509295E-002	-2.4216263E-002	0
1.517419561666757E+003	-5.2497867E-002	-2.4215942E-002	0
1.518132161648755E+003	-5.1486444E-002	-2.4216007E-002	0
1.519090161624554E+003	-5.0475016E-002	-2.4215562E-002	0
1.520042961600484E+003	-4.9463589E-002	-2.4216197E-002	0
1.521385961566557E+003	-4.8452161E-002	-2.4215370E-002	0
1.522920561527790E+003	-4.7402568E-002	-2.4216073E-002	0
1.524942361476715E+003	-4.6372060E-002	-2.4216007E-002	0
1.527296161417253E+003	-4.5360632E-002	-2.4216134E-002	0
1.530131761345619E+003	-4.4349205E-002	-2.4216644E-002	0
1.533514161260173E+003	-4.3318696E-002	-2.4216134E-002	0
1.537602561156891E+003	-4.2307269E-002	-2.4216263E-002	0
1.542479361033693E+003	-4.1295845E-002	-2.4215432E-002	0
1.547479360907382E+003	-4.0704254E-002	-2.4216007E-002	0
1.552400760783057E+003	-3.9673746E-002	-2.4216263E-002	0
1.557400760656747E+003	-3.9139405E-002	-2.4216263E-002	0
1.562400760530436E+003	-3.8681403E-002	-2.4216007E-002	0
1.567400760404125E+003	-3.8051646E-002	-2.4216007E-002	0
1.572400760277815E+003	-3.7517305E-002	-2.4216073E-002	0
1.577400760151504E+003	-3.7097469E-002	-2.4216324E-002	0
1.582400760025193E+003	-3.6753967E-002	-2.4215687E-002	0
1.587400759898883E+003	-3.6315046E-002	-2.4216263E-002	0
1.592400759772572E+003	-3.5895206E-002	-2.4216073E-002	0
1.597400759646262E+003	-3.5685290E-002	-2.4216324E-002	0
1.602400759519951E+003	-3.5189118E-002	-2.4216389E-002	0
1.607400759393640E+003	-3.4826532E-002	-2.4215881E-002	0
1.612400759267330E+003	-3.4502111E-002	-2.4215942E-002	0
1.617400759141019E+003	-3.4273110E-002	-2.4215881E-002	0
1.622400759014708E+003	-3.3948690E-002	-2.4216007E-002	0
1.627400758888398E+003	-3.3624269E-002	-2.4215942E-002	0
1.632400758762087E+003	-3.3338018E-002	-2.4215817E-002	0
1.637400758635777E+003	-3.3089932E-002	-2.4216007E-002	0
1.642400758509466E+003	-3.2841846E-002	-2.4215817E-002	0
1.647400758383155E+003	-3.2746427E-002	-2.4215942E-002	0
1.652400758256845E+003	-3.2441091E-002	-2.4216324E-002	0
1.657400758130534E+003	-3.2231171E-002	-2.4216453E-002	0
1.662400758004223E+003	-3.1964004E-002	-2.4215562E-002	0
1.667400757877913E+003	-3.1715918E-002	-2.4216706E-002	0
1.672400757751602E+003	-3.1544164E-002	-2.4216073E-002	0
1.677400757625292E+003	-3.1334247E-002	-2.4215177E-002	0
1.682400757498981E+003	-3.1047994E-002	-2.4216007E-002	0
1.687400757372670E+003	-3.0914411E-002	-2.4215817E-002	0
1.692400757246360E+003	-3.0742658E-002	-2.4215817E-002	0
1.697400757120049E+003	-3.0628158E-002	-2.4216134E-002	0
1.702400756993738E+003	-3.0437322E-002	-2.4216263E-002	0
1.707400756867428E+003	-3.0208319E-002	-2.4215752E-002	0
1.712400756741117E+003	-3.0074736E-002	-2.4215626E-002	0
1.717400756614807E+003	-2.9998401E-002	-2.4216073E-002	0
1.722400756488496E+003	-2.9788483E-002	-2.4216324E-002	0
1.727400756362185E+003	-2.9597647E-002	-2.4216453E-002	0
1.732400756235875E+003	-2.9387729E-002	-2.4216007E-002	0
1.737400756109564E+003	-2.9273229E-002	-2.4215817E-002	0
1.742400755983253E+003	-2.9139644E-002	-2.4216007E-002	0
1.747400755856943E+003	-2.9120559E-002	-2.4216197E-002	0
1.752400755730632E+003	-2.8967891E-002	-2.4216389E-002	0
1.757400755604322E+003	-2.8929725E-002	-2.4216453E-002	0
1.762400755478011E+003	-2.8643472E-002	-2.4215942E-002	0
1.767400755351700E+003	-2.8490804E-002	-2.4215626E-002	0
1.772400755225390E+003	-2.8490804E-002	-2.4215881E-002	0
1.777400755099079E+003	-2.8280884E-002	-2.4216073E-002	0
1.782400754972768E+003	-2.8223634E-002	-2.4216073E-002	0
1.787400754846458E+003	-2.8204551E-002	-2.4216263E-002	0
1.792400754720147E+003	-2.7956465E-002	-2.4215942E-002	0
1.797400754593837E+003	-2.7918298E-002	-2.4216389E-002	0
1.802400754467526E+003	-2.7822880E-002	-2.4215817E-002	0
1.807400754341215E+003	-2.7670212E-002	-2.4216073E-002	0
1.812400754214905E+003	-2.7536627E-002	-2.4216197E-002	0
1.817400754088594E+003	-2.7460294E-002	-2.4216263E-002	0
1.822400753962283E+003	-2.7460294E-002	-2.4216516E-002	0
1.827400753835973E+003	-2.7269458E-002	-2.4216453E-002	0
1.832400753709662E+003	-2.7193123E-002	-2.4215817E-002	0
1.837400753583352E+003	-2.6964122E-002	-2.4216007E-002	0
1.842400753457041E+003	-2.7040455E-002	-2.4216007E-002	0
1.847400753330730E+003	-2.6983205E-002	-2.4216134E-002	0
1.852400753204420E+003	-2.6792370E-002	-2.4216197E-002	0
1.857400753078109E+003	-2.6773287E-002	-2.4216007E-002	0
1.862400752951798E+003	-2.6696952E-002	-2.4216579E-002	0
1.867400752825488E+003	-2.6506118E-002	-2.4215752E-002	0
1.872400752699177E+003	-2.6448866E-002	-2.4216324E-002	0
1.877400752572867E+003	-2.6391616E-002	-2.4215752E-002	0
1.882400752446556E+003	-2.6372533E-002	-2.4216389E-002	0
1.887400752320245E+003	-2.6219865E-002	-2.4216007E-002	0
1.892400752193935E+003	-2.6143530E-002	-2.4215752E-002	0
1.897400752067624E+003	-2.6124448E-002	-2.4216453E-002	0
1.902400751941314E+003	-2.6048113E-002	-2.4216134E-002	0
1.907400751815003E+003	-2.5952695E-002	-2.4216453E-002	0
1.912400751688692E+003	-2.5895445E-002	-2.4216134E-002	0
1.917400751562382E+003	-2.5780944E-002	-2.4216007E-002	0
1.922400751436071E+003	-2.5666444E-002	-2.4216579E-002	0
1.927400751309760E+003	-2.5761861E-002	-2.4215942E-002	0
1.932400751183450E+003	-2.5685526E-002	-2.4216007E-002	0
1.937400751057139E+003	-2.5590109E-002	-2.4215562E-002	0
1.942400750930829E+003	-2.5513776E-002	-2.4215687E-002	0
1.947400750804518E+003	-2.5475608E-002	-2.4215881E-002	0
1.952400750678207E+003	-2.5342023E-002	-2.4215881E-002	0
1.957400750551897E+003	-2.5361106E-002	-2.4216898E-002	0
1.962400750425586E+003	-2.5246605E-002	-2.4215942E-002	0
1.967400750299275E+003	-2.5189355E-002	-2.4216134E-002	0
1.972400750172965E+003	-2.5227522E-002	-2.4215942E-002	0
1.977400750046654E+003	-2.5113020E-002	-2.4215752E-002	0
1.982400749920344E+003	-2.4998520E-002	-2.4216197E-002	0
1.987400749794033E+003	-2.5055770E-002	-2.4216134E-002	0
1.992400749667722E+003	-2.4903102E-002	-2.4216263E-002	0
1.997400749541412E+003	-2.4922187E-002	-2.4215817E-002	0
2.002400749415101E+003	-2.4826769E-002	-2.4215817E-002	0
2.007400749288790E+003	-2.4788601E-002	-2.4216073E-002	0
2.012400749162480E+003	-2.4731351E-002	-2.4216197E-002	0
2.017400749036169E+003	-2.4731351E-002	-2.4215881E-002	0
2.022400748909859E+003	-2.4655016E-002	-2.4215942E-002	0
2.027400748783548E+003	-2.4578683E-002	-2.4215942E-002	0
2.032400748657237E+003	-2.4578683E-002	-2.4216134E-002	0
2.037400748530927E+003	-2.4387848E-002	-2.4216134E-002	0
2.042400748404616E+003	-2.4426015E-002	-2.4216389E-002	0
2.047400748278305E+003	-2.4426015E-002	-2.4216516E-002	0
2.052400748151995E+003	-2.4406930E-002	-2.4215817E-002	0
2.057400748025684E+003	-2.4292430E-002	-2.4216134E-002	0
2.062400747899374E+003	-2.4273345E-002	-2.4216073E-002	0
2.067400747773063E+003	-2.4273345E-002	-2.4215942E-002	0
2.072400747646752E+003	-2.4158845E-002	-2.4216007E-002	0
2.077400747520442E+003	-2.4197012E-002	-2.4216073E-002	0
2.082400747394131E+003	-2.3987094E-002	-2.4215881E-002	0
2.087400747267820E+003	-2.4082512E-002	-2.4216007E-002	0
2.092400747141510E+003	-2.4025260E-002	-2.4216644E-002	0
2.097400747015199E+003	-2.4006177E-002	-2.4215942E-002	0
2.102400746888889E+003	-2.3948926E-002	-2.4216516E-002	0
2.107400746762578E+003	-2.4006177E-002	-2.4216263E-002	0
2.112400746636267E+003	-2.3929844E-002	-2.4215881E-002	0
2.117400746509957E+003	-2.3872592E-002	-2.4216389E-002	0
2.122400746383646E+003	-2.3815341E-002	-2.4216644E-002	0
2.127400746257335E+003	-2.3681758E-002	-2.4216263E-002	0
2.132400746131025E+003	-2.3739008E-002	-2.4215942E-002	0
2.137400746004714E+003	-2.3739008E-002	-2.4216197E-002	0
2.142400745878404E+003	-2.3700841E-002	-2.4216134E-002	0
2.147400745752093E+003	-2.3681758E-002	-2.4216263E-002	0
2.152400745625782E+003	-2.3510005E-002	-2.4215687E-002	0
2.157400745499472E+003	-2.3548173E-002	-2.4215752E-002	0
2.162400745373161E+003	-2.3624506E-002	-2.4216453E-002	0
2.167400745246850E+003	-2.3548173E-002	-2.4216453E-002	0
2.172400745120540E+003	-2.3452755E-002	-2.4216453E-002	0
2.177400744994229E+003	-2.3357337E-002	-2.4216007E-002	0
2.182400744867919E+003	-2.3376420E-002	-2.4216073E-002	0
2.187400744741608E+003	-2.3395505E-002	-2.4216516E-002	0
2.192400744615297E+003	-2.3242837E-002	-2.4216197E-002	0
2.197400744488987E+003	-2.3338255E-002	-2.4216579E-002	0
2.202400744362676E+003	-2.3242837E-002	-2.4215817E-002	0
2.207400744236365E+003	-2.3300087E-002	-2.4216007E-002	0
2.212400744110055E+003	-2.3261920E-002	-2.4215687E-002	0
2.217400743983744E+003	-2.3185585E-002	-2.4216389E-002	0
2.222400743857434E+003	-2.3166502E-002	-2.4216706E-002	0
2.227400743731123E+003	-2.3147419E-002	-2.4216324E-002	0
2.232400743604812E+003	-2.3166502E-002	-2.4216389E-002	0
2.237400743478502E+003	-2.3032917E-002	-2.4215626E-002	0
2.242400743352191E+003	-2.3090169E-002	-2.4215626E-002	0
2.247400743225880E+003	-2.2975666E-002	-2.4215881E-002	0
2.252400743099570E+003	-2.2975666E-002	-2.4216073E-002	0
2.257400742973259E+003	-2.3032917E-002	-2.4216007E-002	0
2.262400742846949E+003	-2.2937499E-002	-2.4216453E-002	0
2.267400742720638E+003	-2.2880249E-002	-2.4216389E-002	0
2.272400742594327E+003	-2.2803916E-002	-2.4216389E-002	0
2.277400742468017E+003	-2.2975666E-002	-2.4216771E-002	0
2.282400742341706E+003	-2.2784831E-002	-2.4215881E-002	0
2.287400742215395E+003	-2.2803916E-002	-2.4215687E-002	0
2.292400742089085E+003	-2.2746665E-002	-2.4215881E-002	0
2.297400741962774E+003	-2.2574913E-002	-2.4215687E-002	0
2.302400741836464E+003	-2.2765748E-002	-2.4216263E-002	0
2.307400741710153E+003	-2.2689413E-002	-2.4216197E-002	0
2.312400741583842E+003	-2.2803916E-002	-2.4215942E-002	0
2.317400741457532E+003	-2.2593997E-002	-2.4216898E-002	0
2.322400741331221E+003	-2.2670330E-002	-2.4216007E-002	0
2.327400741204910E+003	-2.2632163E-002	-2.4216263E-002	0
2.332400741078600E+003	-2.2651248E-002	-2.4215817E-002	0
2.337400740952289E+003	-2.2536745E-002	-2.4216324E-002	0
2.342400740825979E+003	-2.2651248E-002	-2.4216197E-002	0
2.347400740699668E+003	-2.2498580E-002	-2.4216263E-002	0
2.352400740573357E+003	-2.2593997E-002	-2.4216579E-002	0
2.357400740447047E+003	-2.2574913E-002	-2.4216389E-002	0
2.362400740320736E+003	-2.2345912E-002	-2.4216007E-002	0
2.367400740194425E+003	-2.2517662E-002	-2.4215942E-002	0
2.372400740068115E+003	-2.2460412E-002	-2.4216134E-002	0
2.377400739941804E+003	-2.2345912E-002	-2.4216197E-002	0
2.382400739815494E+003	-2.2441328E-002	-2.4216073E-002	0
2.387400739689183E+003	-2.2441328E-002	-2.4216644E-002	0
2.392400739562872E+003	-2.2441328E-002	-2.4216073E-002	0
2.397400739436562E+003	-2.2364995E-002	-2.4215752E-002	0
2.402400739310251E+003	-2.2326827E-002	-2.4215497E-002	0
2.407400739183940E+003	-2.2345912E-002	-2.4215370E-002	0
2.412400739057630E+003	-2.2269577E-002	-2.4216007E-002	0
2.417400738931319E+003	-2.2097824E-002	-2.4216134E-002	0
2.422400738805009E+003	-2.2269577E-002	-2.4216197E-002	0
2.427400738678698E+003	-2.2078741E-002	-2.4215752E-002	0
2.432400738552387E+003	-2.2269577E-002	-2.4216389E-002	0
2.437400738426077E+003	-2.2116909E-002	-2.4215626E-002	0
2.442400738299766E+003	-2.2135992E-002	-2.4215562E-002	0
2.447400738173455E+003	-2.2097824E-002	-2.4215687E-002	0
2.452400738047145E+003	-2.2116909E-002	-2.4215752E-002	0
2.457400737920834E+003	-2.2097824E-002	-2.4215562E-002	0
2.462400737794524E+003	-2.2002408E-002	-2.4216007E-002	0
2.467400737668213E+003	-2.2135992E-002	-2.4216007E-002	0
2.472400737541902E+003	-2.1983324E-002	-2.4215942E-002	0
2.477400737415592E+003	-2.2040574E-002	-2.4215562E-002	0
2.482400737289281E+003	-2.1945156E-002	-2.4215817E-002	0
2.487400737162970E+003	-2.1887906E-002	-2.4216516E-002	0
2.492400737036660E+003	-2.1906991E-002	-2.4216324E-002	0
2.497400736910349E+003	-2.1926073E-002	-2.4216516E-002	0
2.502400736784039E+003	-2.2002408E-002	-2.4215562E-002	0
2.507400736657728E+003	-2.1887906E-002	-2.4216134E-002	0
2.512400736531417E+003	-2.1945156E-002	-2.4216007E-002	0
2.517400736405107E+003	-2.1849738E-002	-2.4216263E-002	0
2.522400736278796E+003	-2.1926073E-002	-2.4216073E-002	0
2.527400736152485E+003	-2.1926073E-002	-2.4215752E-002	0
2.532400736026175E+003	-2.1887906E-002	-2.4215752E-002	0
2.537400735899864E+003	-2.1811573E-002	-2.4216134E-002	0
2.542400735773554E+003	-2.1735238E-002	-2.4216263E-002	0
2.547400735647243E+003	-2.1811573E-002	-2.4215881E-002	0
2.552400735520932E+003	-2.1773405E-002	-2.4216324E-002	0
2.557400735394622E+003	-2.1792488E-002	-2.4216324E-002	0
2.562400735268311E+003	-2.1639820E-002	-2.4215626E-002	0
2.567400735142000E+003	-2.1735238E-002	-2.4216324E-002	0
2.572400735015690E+003	-2.1811573E-002	-2.4216263E-002	0
2.577400734889379E+003	-2.1677988E-002	-2.4216134E-002	0
2.582400734763069E+003	-2.1697070E-002	-2.4216197E-002	0
2.587400734636758E+003	-2.1735238E-002	-2.4216007E-002	0
2.592400734510447E+003	-2.1697070E-002	-2.4215942E-002	0
2.597400734384137E+003	-2.1735238E-002	-2.4216389E-002	0
2.602400734257826E+003	-2.1735238E-002	-2.4216453E-002	0
2.607400734131515E+003	-2.1716155E-002	-2.4216134E-002	0
2.612400734005205E+003	-2.1639820E-002	-2.4216263E-002	0
2.617400733878894E+003	-2.1525320E-002	-2.4215687E-002	0
2.622400733752584E+003	-2.1697070E-002	-2.4216197E-002	0
2.627400733626273E+003	-2.1506237E-002	-2.4215881E-002	0
2.632400733499962E+003	-2.1697070E-002	-2.4216579E-002	0
2.637400733373652E+003	-2.1487152E-002	-2.4215432E-002	0
2.642400733247341E+003	-2.1525320E-002	-2.4215942E-002	0
2.647400733121031E+003	-2.1544402E-002	-2.4216706E-002	0
2.652400732994720E+003	-2.1601653E-002	-2.4216516E-002	0
2.657400732868409E+003	-2.1487152E-002	-2.4215370E-002	0
2.662400732742099E+003	-2.1620737E-002	-2.4216324E-002	0
2.667400732615788E+003	-2.1525320E-002	-2.4215942E-002	0
2.672400732489477E+003	-2.1544402E-002	-2.4215881E-002	0
2.677400732363167E+003	-2.1391734E-002	-2.4216263E-002	0
2.682400732236856E+003	-2.1525320E-002	-2.4216263E-002	0
2.687400732110546E+003	-2.1448985E-002	-2.4216073E-002	0
2.692400731984235E+003	-2.1448985E-002	-2.4216263E-002	0
2.697400731857924E+003	-2.1487152E-002	-2.4215562E-002	0
2.702400731731614E+003	-2.1525320E-002	-2.4215942E-002	0
2.707400731605303E+003	-2.1468069E-002	-2.4215687E-002	0
2.712400731478992E+003	-2.1448985E-002	-2.4216263E-002	0
2.717400731352682E+003	-2.1448985E-002	-2.4216644E-002	0
2.722400731226371E+003	-2.1429902E-002	-2.4215942E-002	0
2.727400731100061E+003	-2.1277234E-002	-2.4215562E-002	0
2.732400730973750E+003	-2.1448985E-002	-2.4216389E-002	0
2.737400730847439E+003	-2.1410819E-002	-2.4216197E-002	0
2.742400730721129E+003	-2.1353567E-002	-2.4216389E-002	0
2.747400730594818E+003	-2.1391734E-002	-2.4216073E-002	0
2.752400730468507E+003	-2.1181816E-002	-2.4215687E-002	0
2.757400730342197E+003	-2.1353567E-002	-2.4216579E-002	0
2.762400730215886E+003	-2.1296317E-002	-2.4215942E-002	0
2.767400730089576E+003	-2.1239066E-002	-2.4216579E-002	0
2.772400729963265E+003	-2.1391734E-002	-2.4216073E-002	0
2.777400729836954E+003	-2.1391734E-002	-2.4216134E-002	0
2.782400729710644E+003	-2.1296317E-002	-2.4216007E-002	0
2.787400729584333E+003	-2.1334484E-002	-2.4216134E-002	0
2.792400729458022E+003	-2.1315401E-002	-2.4216197E-002	0
2.797400729331712E+003	-2.1239066E-002	-2.4216389E-002	0
2.802400729205401E+003	-2.1258151E-002	-2.4216073E-002	0
2.807400729079091E+003	-2.1258151E-002	-2.4216706E-002	0
2.812400728952780E+003	-2.1258151E-002	-2.4216453E-002	0
2.817400728826469E+003	-2.1143649E-002	-2.4216007E-002	0
2.822400728700159E+003	-2.1143649E-002	-2.4216579E-002	0
2.827400728573848E+003	-2.1239066E-002	-2.4215626E-002	0
2.832400728447537E+003	-2.1372652E-002	-2.4216324E-002	0
2.837400728321227E+003	-2.1219984E-002	-2.4215817E-002	0
2.842400728194916E+003	-2.1124566E-002	-2.4215817E-002	0
2.847400728068606E+003	-2.1029148E-002	-2.4216073E-002	0
2.852400727942295E+003	-2.1105481E-002	-2.4216453E-002	0
2.857400727815984E+003	-2.1162733E-002	-2.4216197E-002	0
2.862400727689674E+003	-2.1143649E-002	-2.4215626E-002	0
2.867400727563363E+003	-2.1162733E-002	-2.4216007E-002	0
2.872400727437052E+003	-2.1143649E-002	-2.4216197E-002	0
2.877400727310742E+003	-2.1105481E-002	-2.4215497E-002	0
2.882400727184431E+003	-2.1124566E-002	-2.4216898E-002	0
2.887400727058121E+003	-2.1162733E-002	-2.4216324E-002	0
2.892400726931810E+003	-2.0971898E-002	-2.4215687E-002	0
2.897400726805499E+003	-2.1010065E-002	-2.4216389E-002	0
2.902400726679189E+003	-2.1105481E-002	-2.4216389E-002	0
2.907400726552878E+003	-2.1010065E-002	-2.4215817E-002	0
2.912400726426567E+003	-2.1200899E-002	-2.4216007E-002	0
2.917400726300257E+003	-2.1086399E-002	-2.4216197E-002	0
2.922400726173946E+003	-2.1010065E-002	-2.4215942E-002	0
2.927400726047636E+003	-2.0895563E-002	-2.4216263E-002	0
2.932400725921325E+003	-2.0952813E-002	-2.4215562E-002	0
2.937400725795014E+003	-2.0914648E-002	-2.4215881E-002	0
2.942400725668704E+003	-2.0990981E-002	-2.4215881E-002	0
2.947400725542393E+003	-2.1067316E-002	-2.4216073E-002	0
2.952400725416082E+003	-2.1010065E-002	-2.4216007E-002	0
2.957400725289772E+003	-2.1029148E-002	-2.4216263E-002	0
2.962400725163461E+003	-2.0990981E-002	-2.4215881E-002	0
2.967400725037151E+003	-2.0857396E-002	-2.4216073E-002	0
2.972400724910840E+003	-2.1010065E-002	-2.4216324E-002	0
2.977400724784529E+003	-2.0933731E-002	-2.4216073E-002	0
2.982400724658219E+003	-2.1067316E-002	-2.4216516E-002	0
2.987400724531908E+003	-2.0952813E-002	-2.4216007E-002	0
2.992400724405597E+003	-2.0876480E-002	-2.4216771E-002	0
2.997400724279287E+003	-2.1067316E-002	-2.4215817E-002	0
3.002400724152976E+003	-2.0990981E-002	-2.4216324E-002	0
3.007400724026666E+003	-2.0914648E-002	-2.4216389E-002	0
3.012400723900355E+003	-2.0895563E-002	-2.4216007E-002	0
3.017400723774044E+003	-2.0800145E-002	-2.4216073E-002	0
3.022400723647734E+003	-2.0838313E-002	-2.4216073E-002	0
3.027400723521423E+003	-2.0876480E-002	-2.4216007E-002	0
3.032400723395112E+003	-2.0895563E-002	-2.4216453E-002	0
3.037400723268802E+003	-2.0933731E-002	-2.4215752E-002	0
3.042400723142491E+003	-2.0857396E-002	-2.4215817E-002	0
3.047400723016181E+003	-2.0781063E-002	-2.4216324E-002	0
3.052400722889870E+003	-2.0800145E-002	-2.4216834E-002	0
3.057400722763559E+003	-2.0838313E-002	-2.4216453E-002	0
3.062400722637249E+003	-2.0990981E-002	-2.4216263E-002	0
3.067400722510938E+003	-2.0838313E-002	-2.4216073E-002	0
3.072400722384627E+003	-2.0781063E-002	-2.4216453E-002	0
3.077400722258317E+003	-2.0819230E-002	-2.4216197E-002	0
3.082400722132006E+003	-2.0800145E-002	-2.4216197E-002	0
3.087400722005696E+003	-2.0819230E-002	-2.4216134E-002	0
3.092400721879385E+003	-2.0800145E-002	-2.4215687E-002	0
3.097400721753074E+003	-2.0914648E-002	-2.4216263E-002	0
3.102400721626764E+003	-2.0761978E-002	-2.4216834E-002	0
3.107400721500453E+003	-2.0685645E-002	-2.4216771E-002	0
3.112400721374142E+003	-2.0704728E-002	-2.4216263E-002	0
3.117400721247832E+003	-2.0857396E-002	-2.4215881E-002	0
3.122400721121521E+003	-2.0742895E-002	-2.4216134E-002	0
3.127400720995211E+003	-2.0742895E-002	-2.4216134E-002	0
3.132400720868900E+003	-2.0723812E-002	-2.4215177E-002	0
3.137400720742589E+003	-2.0723812E-002	-2.4216134E-002	0
3.142400720616279E+003	-2.0704728E-002	-2.4216389E-002	0
3.147400720489968E+003	-2.0666562E-002	-2.4216007E-002	0
3.152400720363657E+003	-2.0857396E-002	-2.4216197E-002	0
3.157400720237347E+003	-2.0704728E-002	-2.4215626E-002	0
3.162400720111036E+003	-2.0685645E-002	-2.4216073E-002	0
3.167400719984726E+003	-2.0704728E-002	-2.4216389E-002	0
3.172400719858415E+003	-2.0590227E-002	-2.4216263E-002	0
3.177400719732104E+003	-2.0647477E-002	-2.4216134E-002	0
3.182400719605794E+003	-2.0628395E-002	-2.4216134E-002	0
3.187400719479483E+003	-2.0685645E-002	-2.4216516E-002	0
3.192400719353172E+003	-2.0800145E-002	-2.4216771E-002	0
3.197400719226862E+003	-2.0647477E-002	-2.4216389E-002	0
3.202400719100551E+003	-2.0552060E-002	-2.4216389E-002	0
3.207400718974241E+003	-2.0685645E-002	-2.4215687E-002	0
3.212400718847930E+003	-2.0647477E-002	-2.4216073E-002	0
3.217400718721619E+003	-2.0723812E-002	-2.4215817E-002	0
3.222400718595309E+003	-2.0590227E-002	-2.4216134E-002	0
3.227400718468998E+003	-2.0494809E-002	-2.4216134E-002	0
3.232400718342687E+003	-2.0704728E-002	-2.4216644E-002	0
3.237400718216377E+003	-2.0532977E-002	-2.4216007E-002	0
3.242400718090066E+003	-2.0552060E-002	-2.4215881E-002	0
3.247400717963756E+003	-2.0628395E-002	-2.4216134E-002	0
3.252400717837445E+003	-2.0590227E-002	-2.4215942E-002	0
3.257400717711134E+003	-2.0609310E-002	-2.4215817E-002	0
3.262400717584824E+003	-2.0552060E-002	-2.4216073E-002	0
3.267400717458513E+003	-2.0590227E-002	-2.4217088E-002	0
3.272400717332202E+003	-2.0628395E-002	-2.4216706E-002	0
3.277400717205892E+003	-2.0571144E-002	-2.4215626E-002	0
3.282400717079581E+003	-2.0494809E-002	-2.4216197E-002	0
3.287400716953271E+003	-2.0437559E-002	-2.4215687E-002	0
3.292400716826960E+003	-2.0609310E-002	-2.4215817E-002	0
3.297400716700649E+003	-2.0456642E-002	-2.4216389E-002	0
3.302400716574339E+003	-2.0590227E-002	-2.4216073E-002	0
3.304547516520106E+003	-2.0609310E-002	-2.4216134E-002	0