time/s	Ewe/V	I/mA	error	
3.836169903090049E+002	-1.3389525E-002	-9.7393376E-001	0
3.836171903089999E+002	-3.0307055E-002	-9.7978884E-001	0
3.836173903089948E+002	-3.5217896E-002	-9.7992891E-001	0
3.836175903089897E+002	-3.7775587E-002	-9.7990340E-001	0
3.836177903089847E+002	-3.9894268E-002	-9.7989696E-001	0
3.836179903089796E+002	-4.1669384E-002	-9.7994167E-001	0
3.836181903089746E+002	-4.3310884E-002	-9.7994798E-001	0
3.836183903089695E+002	-4.4685166E-002	-9.7996074E-001	0
3.836185903089645E+002	-4.6154883E-002	-9.7989064E-001	0
3.836187903089594E+002	-4.7605511E-002	-9.7997338E-001	0
3.836189903089544E+002	-4.8788920E-002	-9.7994798E-001	0
3.836191903089493E+002	-5.0201375E-002	-9.7987789E-001	0
3.836193903089443E+002	-5.1384784E-002	-9.7991616E-001	0
3.836195903089392E+002	-5.2739978E-002	-9.7998613E-001	0
3.836197903089342E+002	-5.3942472E-002	-9.7996706E-001	0
3.836201903089241E+002	-5.6213852E-002	-9.7992253E-001	0
3.836203903089190E+002	-5.7320911E-002	-9.7990340E-001	0
3.836205903089140E+002	-5.8523409E-002	-9.7996074E-001	0
3.836207903089089E+002	-5.9573207E-002	-9.7992253E-001	0
3.836209903089039E+002	-6.0737528E-002	-9.7999889E-001	0
3.836211903088988E+002	-6.1901849E-002	-9.7993523E-001	0
3.836215903088887E+002	-6.4058706E-002	-9.7993523E-001	0
3.836219903088786E+002	-6.6139214E-002	-9.7987157E-001	0
3.836223903088685E+002	-6.8086110E-002	-9.7997338E-001	0
3.836225903088634E+002	-6.9231346E-002	-9.7987789E-001	0
3.836229903088533E+002	-7.1159154E-002	-9.7987789E-001	0
3.836233903088432E+002	-7.3029704E-002	-9.7992891E-001	0
3.836235903088382E+002	-7.4155852E-002	-9.7999889E-001	0
3.836239903088281E+002	-7.5950049E-002	-9.7992253E-001	0
3.836241903088230E+002	-7.6999851E-002	-9.7992253E-001	0
3.836245903088129E+002	-7.8870393E-002	-9.8000526E-001	0
3.836249903088028E+002	-8.0702774E-002	-9.7996074E-001	0
3.836253903087927E+002	-8.2516059E-002	-9.7995430E-001	0
3.836257903087826E+002	-8.4291168E-002	-9.7994798E-001	0
3.836261903087725E+002	-8.5951760E-002	-9.7997981E-001	0
3.836263903087674E+002	-8.7039731E-002	-9.7997981E-001	0
3.836267903087573E+002	-8.8566713E-002	-9.8004341E-001	0
3.836271903087472E+002	-9.0418175E-002	-9.7999251E-001	0
3.836275903087371E+002	-9.2040583E-002	-9.7992891E-001	0
3.836279903087270E+002	-9.3777522E-002	-9.7992253E-001	0
3.836283903087169E+002	-9.5323592E-002	-9.7997981E-001	0
3.836287903087068E+002	-9.7175054E-002	-9.7996706E-001	0
3.836291903086967E+002	-9.8682940E-002	-9.7990972E-001	0
3.836295903086866E+002	-1.0017174E-001	-9.7991616E-001	0
3.836299903086765E+002	-1.0183234E-001	-9.7996074E-001	0
3.836303903086664E+002	-1.0320662E-001	-9.7991616E-001	0
3.836307903086563E+002	-1.0475268E-001	-9.7989064E-001	0
3.836311903086462E+002	-1.0652780E-001	-9.7994167E-001	0
3.836315903086361E+002	-1.0784481E-001	-9.7992891E-001	0
3.836319903086260E+002	-1.0942905E-001	-9.7997338E-001	0
3.836323903086159E+002	-1.1086060E-001	-9.7997338E-001	0
3.836327903086058E+002	-1.1229214E-001	-9.7995430E-001	0
3.836331903085957E+002	-1.1374277E-001	-9.7998613E-001	0
3.836335903085856E+002	-1.1521249E-001	-9.7993523E-001	0
3.836339903085754E+002	-1.1656768E-001	-9.7990972E-001	0
3.836343903085653E+002	-1.1788470E-001	-9.7991616E-001	0
3.836347903085552E+002	-1.1943077E-001	-9.7996074E-001	0
3.836351903085451E+002	-1.2061417E-001	-9.7992253E-001	0
3.836355903085350E+002	-1.2198845E-001	-9.7994167E-001	0
3.836359903085249E+002	-1.2330547E-001	-9.7995430E-001	0
3.836363903085148E+002	-1.2462249E-001	-9.7995430E-001	0
3.836367903085047E+002	-1.2601586E-001	-9.7993523E-001	0
3.836371903084946E+002	-1.2731379E-001	-9.7993523E-001	0
3.836375903084845E+002	-1.2857355E-001	-9.7994798E-001	0
3.836379903084744E+002	-1.2975696E-001	-9.7993523E-001	0
3.836383903084643E+002	-1.3094036E-001	-9.7996074E-001	0
3.836387903084542E+002	-1.3221921E-001	-9.7996074E-001	0
3.836391903084441E+002	-1.3347897E-001	-9.7995430E-001	0
3.836395903084340E+002	-1.3464329E-001	-9.7994167E-001	0
3.836399903084239E+002	-1.3590305E-001	-9.7991616E-001	0
3.836403903084138E+002	-1.3706736E-001	-9.7994167E-001	0
3.836407903084037E+002	-1.3826986E-001	-9.7991616E-001	0
3.836411903083936E+002	-1.3933875E-001	-9.7994798E-001	0
3.836415903083835E+002	-1.4054124E-001	-9.7989696E-001	0
3.836419903083734E+002	-1.4178191E-001	-9.7994167E-001	0
3.836423903083632E+002	-1.4302258E-001	-9.7999251E-001	0
3.836427903083531E+002	-1.4414872E-001	-9.7992891E-001	0
3.836433903083380E+002	-1.4577115E-001	-9.7992891E-001	0
3.836437903083279E+002	-1.4680186E-001	-9.7996074E-001	0
3.836441903083178E+002	-1.4796618E-001	-9.7993523E-001	0
3.836445903083077E+002	-1.4905414E-001	-9.7992253E-001	0
3.836449903082976E+002	-1.5016121E-001	-9.7996074E-001	0
3.836455903082824E+002	-1.5163092E-001	-9.7996074E-001	0
3.836459903082723E+002	-1.5268072E-001	-9.7994798E-001	0
3.836463903082622E+002	-1.5384504E-001	-9.7993523E-001	0
3.836469903082470E+002	-1.5521932E-001	-9.7991616E-001	0
3.836473903082369E+002	-1.5640274E-001	-9.7996706E-001	0
3.836479903082218E+002	-1.5781519E-001	-9.7990340E-001	0
3.836485903082066E+002	-1.5924673E-001	-9.7989064E-001	0
3.836491903081915E+002	-1.6073553E-001	-9.7992253E-001	0
3.836495903081814E+002	-1.6178533E-001	-9.7996074E-001	0
3.836501903081662E+002	-1.6310234E-001	-9.7994798E-001	0
3.836505903081561E+002	-1.6411397E-001	-9.7992253E-001	0
3.836511903081409E+002	-1.6560277E-001	-9.7997981E-001	0
3.836517903081258E+002	-1.6688162E-001	-9.7999889E-001	0
3.836523903081106E+002	-1.6823682E-001	-9.7997338E-001	0
3.836529903080955E+002	-1.6957292E-001	-9.7989696E-001	0
3.836535903080803E+002	-1.7096628E-001	-9.7996074E-001	0
3.836541903080652E+002	-1.7218786E-001	-9.7996706E-001	0
3.836547903080500E+002	-1.7354307E-001	-9.7988433E-001	0
3.836553903080348E+002	-1.7480282E-001	-9.7994798E-001	0
3.836559903080197E+002	-1.7608167E-001	-9.7999251E-001	0
3.836565903080045E+002	-1.7726508E-001	-9.7992253E-001	0
3.836571903079894E+002	-1.7852484E-001	-9.7990340E-001	0
3.836577903079742E+002	-1.7982276E-001	-9.7990340E-001	0
3.836583903079591E+002	-1.8092982E-001	-9.7994798E-001	0
3.836589903079439E+002	-1.8205597E-001	-9.7989064E-001	0
3.836595903079287E+002	-1.8331572E-001	-9.7990340E-001	0
3.836601903079136E+002	-1.8444188E-001	-9.7997981E-001	0
3.836607903078984E+002	-1.8577798E-001	-9.7996074E-001	0
3.836615903078782E+002	-1.8709500E-001	-9.7998613E-001	0
3.836621903078631E+002	-1.8827841E-001	-9.7990340E-001	0
3.836627903078479E+002	-1.8938547E-001	-9.7997338E-001	0
3.836633903078327E+002	-1.9043526E-001	-9.7993523E-001	0
3.836639903078176E+002	-1.9144689E-001	-9.7990340E-001	0
3.836645903078024E+002	-1.9255395E-001	-9.7997338E-001	0
3.836651903077873E+002	-1.9360375E-001	-9.7990972E-001	0
3.836657903077721E+002	-1.9461536E-001	-9.8001158E-001	0
3.836663903077570E+002	-1.9568425E-001	-9.7995430E-001	0
3.836669903077418E+002	-1.9669588E-001	-9.7992891E-001	0
3.836677903077216E+002	-1.9801290E-001	-9.7997338E-001	0
3.836685903077014E+002	-1.9923449E-001	-9.7990972E-001	0
3.836691903076862E+002	-2.0030336E-001	-9.7995430E-001	0
3.836699903076660E+002	-2.0163947E-001	-9.7989696E-001	0
3.836707903076458E+002	-2.0278470E-001	-9.7992253E-001	0
3.836715903076256E+002	-2.0410173E-001	-9.7997981E-001	0
3.836723903076054E+002	-2.0532331E-001	-9.7991616E-001	0
3.836731903075852E+002	-2.0641127E-001	-9.8002434E-001	0
3.836739903075650E+002	-2.0765194E-001	-9.7989064E-001	0
3.836747903075448E+002	-2.0877810E-001	-9.7992891E-001	0
3.836755903075245E+002	-2.0980881E-001	-9.7994167E-001	0
3.836763903075043E+002	-2.1093495E-001	-9.7994167E-001	0
3.836771903074841E+002	-2.1217562E-001	-9.7992891E-001	0
3.836781903074589E+002	-2.1339720E-001	-9.7994167E-001	0
3.836789903074387E+002	-2.1448518E-001	-9.7990340E-001	0
3.836797903074184E+002	-2.1564950E-001	-9.7994167E-001	0
3.836805903073982E+002	-2.1666113E-001	-9.7993523E-001	0
3.836813903073780E+002	-2.1776818E-001	-9.7994167E-001	0
3.836823903073528E+002	-2.1898976E-001	-9.7997981E-001	0
3.836833903073275E+002	-2.2011591E-001	-9.7995430E-001	0
3.836841903073073E+002	-2.2118481E-001	-9.7994167E-001	0
3.836849903072871E+002	-2.2221550E-001	-9.7989064E-001	0
3.836859903072618E+002	-2.2330348E-001	-9.7996706E-001	0
3.836867903072416E+002	-2.2437237E-001	-9.7992891E-001	0
3.836877903072163E+002	-2.2540307E-001	-9.7998613E-001	0
3.836887903071911E+002	-2.2660556E-001	-9.7994798E-001	0
3.836897903071658E+002	-2.2767445E-001	-9.7993523E-001	0
3.836907903071406E+002	-2.2878152E-001	-9.7996706E-001	0
3.836917903071153E+002	-2.2981222E-001	-9.8002434E-001	0
3.836927903070900E+002	-2.3090020E-001	-9.7995430E-001	0
3.836937903070648E+002	-2.3193091E-001	-9.7989696E-001	0
3.836947903070395E+002	-2.3299980E-001	-9.7994798E-001	0
3.836959903070092E+002	-2.3424046E-001	-9.7998613E-001	0
3.836971903069789E+002	-2.3548113E-001	-9.7997338E-001	0
3.836983903069486E+002	-2.3660728E-001	-9.7996074E-001	0
3.836995903069183E+002	-2.3763800E-001	-9.7997981E-001	0
3.837005903068930E+002	-2.3866870E-001	-9.7999251E-001	0
3.837017903068627E+002	-2.3969941E-001	-9.7990972E-001	0
3.837031903068273E+002	-2.4086374E-001	-9.7993523E-001	0
3.837043903067970E+002	-2.4198988E-001	-9.7996706E-001	0
3.837055903067667E+002	-2.4300151E-001	-9.7987157E-001	0
3.837067903067364E+002	-2.4407040E-001	-9.7992891E-001	0
3.837081903067010E+002	-2.4525380E-001	-9.7992253E-001	0
3.837095903066656E+002	-2.4634176E-001	-9.7994167E-001	0
3.837109903066303E+002	-2.4741066E-001	-9.7994167E-001	0
3.837123903065949E+002	-2.4861315E-001	-9.7996074E-001	0
3.837139903065545E+002	-2.4977747E-001	-9.7997338E-001	0
3.837155903065141E+002	-2.5097996E-001	-9.7992253E-001	0
3.837171903064736E+002	-2.5201067E-001	-9.7996706E-001	0
3.837187903064332E+002	-2.5317499E-001	-9.7996074E-001	0
3.837205903063877E+002	-2.5437748E-001	-9.7993523E-001	0
3.837223903063423E+002	-2.5556090E-001	-9.7994167E-001	0
3.837239903063019E+002	-2.5668705E-001	-9.7996074E-001	0
3.837257903062564E+002	-2.5775594E-001	-9.7992253E-001	0
3.837275903062109E+002	-2.5882483E-001	-9.7995430E-001	0
3.837293903061654E+002	-2.5987461E-001	-9.7996706E-001	0
3.837311903061200E+002	-2.6088622E-001	-9.7991616E-001	0
3.837329903060745E+002	-2.6199329E-001	-9.7996074E-001	0
3.837351903060189E+002	-2.6313853E-001	-9.7997981E-001	0
3.837371903059684E+002	-2.6424560E-001	-9.7989064E-001	0
3.837393903059128E+002	-2.6552442E-001	-9.7996074E-001	0
3.837417903058522E+002	-2.6655513E-001	-9.7996074E-001	0
3.837439903057966E+002	-2.6756677E-001	-9.8003709E-001	0
3.837463903057360E+002	-2.6865473E-001	-9.7997338E-001	0
3.837487903056754E+002	-2.6970452E-001	-9.7988433E-001	0
3.837511903056147E+002	-2.7079251E-001	-9.7994167E-001	0
3.837539903055440E+002	-2.7184230E-001	-9.8001158E-001	0
3.837565903054783E+002	-2.7285394E-001	-9.7997338E-001	0
3.837597903053975E+002	-2.7399915E-001	-9.7996706E-001	0
3.837633903053065E+002	-2.7501079E-001	-9.7993523E-001	0
3.837663903052307E+002	-2.7604151E-001	-9.8000526E-001	0
3.837697903051449E+002	-2.7709129E-001	-9.7993523E-001	0
3.837741903050337E+002	-2.7816018E-001	-9.7994798E-001	0
3.837789903049124E+002	-2.7917179E-001	-9.7993523E-001	0
3.837849903047609E+002	-2.8031704E-001	-9.8003066E-001	0
3.837937903045386E+002	-2.8132865E-001	-9.7998613E-001	0
3.838043903042708E+002	-2.8235936E-001	-9.7990340E-001	0
3.838605903028511E+002	-2.8125232E-001	-9.7994167E-001	0
3.838779903024115E+002	-2.8024068E-001	-9.7994167E-001	0
3.838931903020275E+002	-2.7922907E-001	-9.7990340E-001	0
3.839069903016789E+002	-2.7821743E-001	-9.7994167E-001	0
3.839211903013202E+002	-2.7720582E-001	-9.7996074E-001	0
3.839359903009463E+002	-2.7619419E-001	-9.7998613E-001	0
3.839509903005674E+002	-2.7516347E-001	-9.7993523E-001	0
3.839663903001783E+002	-2.7403733E-001	-9.7997981E-001	0
3.839853902996983E+002	-2.7298754E-001	-9.7987157E-001	0
3.840035902992386E+002	-2.7195683E-001	-9.7991616E-001	0
3.840255902986828E+002	-2.7090704E-001	-9.7998613E-001	0
3.840495902980765E+002	-2.6987633E-001	-9.7989696E-001	0
3.840781902973540E+002	-2.6886469E-001	-9.7995430E-001	0
3.841157902964042E+002	-2.6777673E-001	-9.7996074E-001	0
3.841657902951411E+002	-2.6672694E-001	-9.7996074E-001	0
3.842445902931504E+002	-2.6567712E-001	-9.8004979E-001	0
3.851975902690756E+002	-2.6670784E-001	-9.7996706E-001	0
3.855647902597993E+002	-2.6771948E-001	-9.7994167E-001	0
3.859275902506342E+002	-2.6873109E-001	-9.7999889E-001	0
3.862923902414186E+002	-2.6974270E-001	-9.7995430E-001	0
3.866139902332943E+002	-2.7079251E-001	-9.7995430E-001	0
3.869639902244526E+002	-2.7184230E-001	-9.7992253E-001	0
3.873233902153734E+002	-2.7291119E-001	-9.8003066E-001	0
3.876923902060516E+002	-2.7398008E-001	-9.8000526E-001	0
3.880389901972958E+002	-2.7499169E-001	-9.7999251E-001	0
3.883831901886006E+002	-2.7600333E-001	-9.8001802E-001	0
3.887245901799761E+002	-2.7707222E-001	-9.8002434E-001	0
3.890801901709929E+002	-2.7808383E-001	-9.7997981E-001	0
3.894349901620299E+002	-2.7913362E-001	-9.8001158E-001	0
3.898101901525515E+002	-2.8014526E-001	-9.7997981E-001	0
3.901659901435632E+002	-2.8117597E-001	-9.8001158E-001	0
3.905209901345952E+002	-2.8222576E-001	-9.7993523E-001	0
3.909447901238891E+002	-2.8323740E-001	-9.7991616E-001	0
3.913115901146230E+002	-2.8426808E-001	-9.7994798E-001	0
3.917113901045232E+002	-2.8527972E-001	-9.7996074E-001	0
3.921399900936958E+002	-2.8631043E-001	-9.8002434E-001	0
3.925369900836668E+002	-2.8732204E-001	-9.7998613E-001	0
3.929867900723038E+002	-2.8835276E-001	-9.7999251E-001	0
3.934175900614209E+002	-2.8938347E-001	-9.8001802E-001	0
3.938849900496134E+002	-2.9039508E-001	-9.7993523E-001	0
3.943519900378160E+002	-2.9140672E-001	-9.7995430E-001	0
3.948329900256649E+002	-2.9241833E-001	-9.8001158E-001	0
3.953457900127105E+002	-2.9348722E-001	-9.7992891E-001	0
3.958977899987658E+002	-2.9449886E-001	-9.7997981E-001	0
3.964447899849474E+002	-2.9556772E-001	-9.7999889E-001	0
3.970387899699417E+002	-2.9663661E-001	-9.7992891E-001	0
3.976735899539053E+002	-2.9768643E-001	-9.7997338E-001	0
3.983273899373889E+002	-2.9869804E-001	-9.7994798E-001	0
3.989901899206452E+002	-2.9972875E-001	-9.7998613E-001	0
3.997733899008599E+002	-3.0074036E-001	-9.7999251E-001	0
4.005233898819133E+002	-3.0175200E-001	-9.7996074E-001	0
4.013353898614005E+002	-3.0276361E-001	-9.8001158E-001	0
4.022259898389020E+002	-3.0377525E-001	-9.7992253E-001	0
4.031557898154133E+002	-3.0478686E-001	-9.7994798E-001	0
4.041633897899592E+002	-3.0581757E-001	-9.7997981E-001	0
4.053309897604631E+002	-3.0684829E-001	-9.8003709E-001	0
4.065713897291280E+002	-3.0785993E-001	-9.8010069E-001	0
4.080571896915935E+002	-3.0887154E-001	-9.7992891E-001	0
4.095891896528919E+002	-3.0990225E-001	-9.7997981E-001	0
4.115345896037470E+002	-3.1091386E-001	-9.7992891E-001	0
4.142443895352917E+002	-3.1192550E-001	-9.7996074E-001	0
4.181893894356326E+002	-3.1293711E-001	-9.7997981E-001	0
4.231893893093220E+002	-3.1322342E-001	-9.7999251E-001	0
4.281893891830114E+002	-3.1341431E-001	-9.7994798E-001	0
4.331893890567007E+002	-3.1280351E-001	-9.7999889E-001	0
4.381893889303901E+002	-3.1232631E-001	-9.7988433E-001	0
4.419347888357734E+002	-3.1131470E-001	-9.7999889E-001	0
4.459467887344217E+002	-3.1030309E-001	-9.7996074E-001	0
4.503587886229652E+002	-3.0927238E-001	-9.7997338E-001	0
4.543237885228009E+002	-3.0824167E-001	-9.7996706E-001	0
4.579307884316804E+002	-3.0723003E-001	-9.7997338E-001	0
4.612747883472039E+002	-3.0621842E-001	-9.7997338E-001	0
4.646723882613733E+002	-3.0520678E-001	-9.8004979E-001	0
4.679249881792057E+002	-3.0419517E-001	-9.7998613E-001	0
4.711799880969775E+002	-3.0318353E-001	-9.7996706E-001	0
4.744153880152444E+002	-3.0217192E-001	-9.7996706E-001	0
4.777345879313943E+002	-3.0116031E-001	-9.8003709E-001	0
4.809421878503636E+002	-3.0012959E-001	-9.8002434E-001	0
4.841829877684941E+002	-2.9909888E-001	-9.8001158E-001	0
4.873311876889638E+002	-2.9804906E-001	-9.7994798E-001	0
4.906947876039922E+002	-2.9703745E-001	-9.7999889E-001	0
4.941195875174744E+002	-2.9602584E-001	-9.7998613E-001	0
4.973931874347763E+002	-2.9501420E-001	-9.7996706E-001	0
5.010101873434032E+002	-2.9400259E-001	-9.7997338E-001	0
5.045677872535307E+002	-2.9297188E-001	-9.8000526E-001	0
5.080987871643301E+002	-2.9192206E-001	-9.7998613E-001	0
5.118753870689252E+002	-2.9091045E-001	-9.7994167E-001	0
5.159503869659820E+002	-2.8987974E-001	-9.8001802E-001	0
5.199227868656308E+002	-2.8884903E-001	-9.7994167E-001	0
5.239807867631171E+002	-2.8783742E-001	-9.7997981E-001	0
5.279229866635287E+002	-2.8680670E-001	-9.8003709E-001	0
5.318731865637383E+002	-2.8577599E-001	-9.7990972E-001	0
5.362403864534135E+002	-2.8476435E-001	-9.7998613E-001	0
5.406809863412345E+002	-2.8375274E-001	-9.8000526E-001	0
5.452369862261403E+002	-2.8274113E-001	-9.7997338E-001	0
5.500669861041242E+002	-2.8172949E-001	-9.7994798E-001	0
5.550669859778136E+002	-2.8092784E-001	-9.7994798E-001	0
5.590673858767550E+002	-2.7991620E-001	-9.8001802E-001	0
5.640673857504444E+002	-2.7915272E-001	-9.8002434E-001	0
5.685419856374065E+002	-2.7810290E-001	-9.7998613E-001	0
5.735419855110958E+002	-2.7745396E-001	-9.8000526E-001	0
5.780279853977700E+002	-2.7640414E-001	-9.7996706E-001	0
5.830279852714593E+002	-2.7581245E-001	-9.7998613E-001	0
5.874187851605384E+002	-2.7478173E-001	-9.7997338E-001	0
5.924187850342278E+002	-2.7413276E-001	-9.7996074E-001	0
5.974187849079171E+002	-2.7335021E-001	-9.7996074E-001	0
6.024187847816065E+002	-2.7260581E-001	-9.8003066E-001	0
6.074187846552959E+002	-2.7174687E-001	-9.8001158E-001	0
6.124187845289853E+002	-2.7111700E-001	-9.7998613E-001	0
6.174187844026746E+002	-2.7039167E-001	-9.7999251E-001	0
6.224187842763640E+002	-2.6978087E-001	-9.7999889E-001	0
6.274187841500534E+002	-2.6892197E-001	-9.7994167E-001	0
6.324187840237428E+002	-2.6836842E-001	-9.7994798E-001	0
6.374187838974321E+002	-2.6771948E-001	-9.7999251E-001	0
6.424187837711215E+002	-2.6695597E-001	-9.7997981E-001	0
6.474187836448109E+002	-2.6632610E-001	-9.7991616E-001	0
6.524187835185003E+002	-2.6584890E-001	-9.8001158E-001	0
6.574187833921897E+002	-2.6514268E-001	-9.7993523E-001	0
6.624187832658790E+002	-2.6453188E-001	-9.7999251E-001	0
6.674187831395684E+002	-2.6390201E-001	-9.7998613E-001	0
6.724187830132578E+002	-2.6348209E-001	-9.8000526E-001	0
6.774187828869472E+002	-2.6287130E-001	-9.7997338E-001	0
6.824187827606365E+002	-2.6226053E-001	-9.7996706E-001	0
6.874187826343259E+002	-2.6170698E-001	-9.7996706E-001	0
6.924187825080153E+002	-2.6113436E-001	-9.7999251E-001	0
6.974187823817047E+002	-2.6058084E-001	-9.8001158E-001	0
7.024187822553940E+002	-2.6014182E-001	-9.8003066E-001	0
7.074187821290834E+002	-2.5960737E-001	-9.7993523E-001	0
7.124187820027728E+002	-2.5901568E-001	-9.8004979E-001	0
7.174187818764622E+002	-2.5863394E-001	-9.7998613E-001	0
7.224187817501515E+002	-2.5813767E-001	-9.7999889E-001	0
7.274187816238409E+002	-2.5760323E-001	-9.8004979E-001	0
7.324187814975303E+002	-2.5706878E-001	-9.8006886E-001	0
7.374187813712197E+002	-2.5657251E-001	-9.7994798E-001	0
7.424187812449090E+002	-2.5609535E-001	-9.7993523E-001	0
7.436167812146450E+002	-2.5598082E-001	-9.7996706E-001	0