time/s	Ewe/V	I/mA	error	
6.005299848293362E+001	2.7452781E+000	-2.5025172E-002	0
6.017319847989711E+001	9.3995128E-003	-1.6145113E+001	0
6.017359847988700E+001	9.4949678E-003	-1.6085886E+001	0
6.017399847987690E+001	9.3995128E-003	-1.6028568E+001	0
6.017439847986680E+001	9.3995128E-003	-1.5962337E+001	0
6.017479847985669E+001	9.3995128E-003	-1.5908842E+001	0
6.017519847984659E+001	9.4567863E-003	-1.5847066E+001	0
6.017559847983648E+001	9.4758775E-003	-1.5780197E+001	0
6.017599847982638E+001	9.4567863E-003	-1.5729887E+001	0
6.017639847981627E+001	9.4376951E-003	-1.5675117E+001	0
6.017679847980617E+001	9.4949678E-003	-1.5613343E+001	0
6.017719847979606E+001	9.4758775E-003	-1.5555390E+001	0
6.017759847978596E+001	9.4758775E-003	-1.5498713E+001	0
6.017799847977585E+001	9.3995128E-003	-1.5448400E+001	0
6.017839847976575E+001	9.4758775E-003	-1.5391084E+001	0
6.017879847975564E+001	9.4949678E-003	-1.5333131E+001	0
6.017919847974554E+001	9.4567863E-003	-1.5282820E+001	0
6.017959847973543E+001	9.4758775E-003	-1.5226777E+001	0
6.017999847972533E+001	9.3804216E-003	-1.5173919E+001	0
6.018059847971017E+001	9.4186040E-003	-1.5100681E+001	0
6.018099847970007E+001	9.4949678E-003	-1.5042091E+001	0
6.018139847968996E+001	9.5331501E-003	-1.4991142E+001	0
6.018179847967986E+001	9.4567863E-003	-1.4940194E+001	0
6.018219847966975E+001	9.4376951E-003	-1.4887338E+001	0
6.018279847965459E+001	9.3422402E-003	-1.4809004E+001	0
6.018339847963944E+001	9.4758775E-003	-1.4732582E+001	0
6.018399847962428E+001	9.4949678E-003	-1.4655523E+001	0
6.018459847960912E+001	9.3995128E-003	-1.4583559E+001	0
6.018519847959396E+001	9.3995128E-003	-1.4512870E+001	0
6.018559847958386E+001	9.4186040E-003	-1.4461922E+001	0
6.018619847956870E+001	9.4758775E-003	-1.4392506E+001	0
6.018679847955354E+001	9.3804216E-003	-1.4323088E+001	0
6.018739847953839E+001	9.4186040E-003	-1.4253671E+001	0
6.018799847952323E+001	9.3995128E-003	-1.4180435E+001	0
6.018859847950807E+001	9.4376951E-003	-1.4110381E+001	0
6.018919847949292E+001	9.4758775E-003	-1.4038417E+001	0
6.018979847947776E+001	9.4949678E-003	-1.3978552E+001	0
6.019039847946260E+001	9.4186040E-003	-1.3907862E+001	0
6.019099847944744E+001	9.3995128E-003	-1.3839082E+001	0
6.019159847943229E+001	9.4376951E-003	-1.3779856E+001	0
6.019199847942218E+001	9.4567863E-003	-1.3729546E+001	0
6.019259847940702E+001	9.4376951E-003	-1.3666497E+001	0
6.019319847939187E+001	9.4758775E-003	-1.3610455E+001	0
6.019379847937671E+001	9.4758775E-003	-1.3541675E+001	0
6.019439847936155E+001	9.4567863E-003	-1.3476716E+001	0
6.019499847934640E+001	9.4186040E-003	-1.3423221E+001	0
6.019559847933124E+001	9.4949678E-003	-1.3367814E+001	0
6.019599847932113E+001	9.3995128E-003	-1.3314319E+001	0
6.019659847930598E+001	9.3995128E-003	-1.3258276E+001	0
6.019719847929082E+001	9.4376951E-003	-1.3201597E+001	0
6.019779847927566E+001	9.5140589E-003	-1.3144280E+001	0
6.019839847926050E+001	9.3995128E-003	-1.3084416E+001	0
6.019899847924535E+001	9.4186040E-003	-1.3017547E+001	0
6.019959847923019E+001	9.4186040E-003	-1.2961505E+001	0
6.020019847921503E+001	9.3040578E-003	-1.2904188E+001	0
6.020079847919988E+001	9.4376951E-003	-1.2853876E+001	0
6.020139847918472E+001	9.4758775E-003	-1.2793377E+001	0
6.020199847916956E+001	9.4758775E-003	-1.2736697E+001	0
6.020259847915440E+001	9.4949678E-003	-1.2683202E+001	0
6.020319847913925E+001	9.3804216E-003	-1.2630343E+001	0
6.020379847912409E+001	9.4949678E-003	-1.2577485E+001	0
6.020439847910893E+001	9.4567863E-003	-1.2525900E+001	0
6.020499847909377E+001	9.4949678E-003	-1.2467310E+001	0
6.020559847907862E+001	9.4949678E-003	-1.2414452E+001	0
6.020639847905841E+001	9.5522413E-003	-1.2350130E+001	0
6.020699847904325E+001	9.3613314E-003	-1.2295361E+001	0
6.020759847902809E+001	9.4186040E-003	-1.2245050E+001	0
6.020839847900788E+001	9.4567863E-003	-1.2177544E+001	0
6.020919847898767E+001	9.3804216E-003	-1.2117043E+001	0
6.020979847897252E+001	9.4567863E-003	-1.2061638E+001	0
6.021059847895231E+001	9.4376951E-003	-1.1992221E+001	0
6.021139847893210E+001	9.4949678E-003	-1.1930447E+001	0
6.021219847891189E+001	9.5140589E-003	-1.1866762E+001	0
6.021299847889168E+001	9.4376951E-003	-1.1803077E+001	0
6.021379847887147E+001	9.5140589E-003	-1.1744487E+001	0
6.021459847885126E+001	9.4758775E-003	-1.1676981E+001	0
6.021539847883105E+001	9.3804216E-003	-1.1626670E+001	0
6.021599847881589E+001	9.3995128E-003	-1.1565532E+001	0
6.021679847879568E+001	9.3995128E-003	-1.1510763E+001	0
6.021759847877547E+001	9.4376951E-003	-1.1453446E+001	0
6.021839847875526E+001	9.4758775E-003	-1.1403135E+001	0
6.021919847873505E+001	9.4758775E-003	-1.1342635E+001	0
6.021979847871989E+001	9.4376951E-003	-1.1287867E+001	0
6.022059847869969E+001	9.4949678E-003	-1.1233734E+001	0
6.022139847867948E+001	9.3613314E-003	-1.1176417E+001	0
6.022219847865927E+001	9.3995128E-003	-1.1122922E+001	0
6.022319847863400E+001	9.3422402E-003	-1.1052232E+001	0
6.022399847861379E+001	9.4758775E-003	-1.0998736E+001	0
6.022499847858853E+001	9.4186040E-003	-1.0931230E+001	0
6.022599847856327E+001	9.3804216E-003	-1.0864361E+001	0
6.022679847854306E+001	9.4567863E-003	-1.0809592E+001	0
6.022779847851780E+001	9.4758775E-003	-1.0743361E+001	0
6.022859847849759E+001	9.4376951E-003	-1.0693049E+001	0
6.022939847847738E+001	9.4186040E-003	-1.0642101E+001	0
6.023039847845212E+001	9.4376951E-003	-1.0588606E+001	0
6.023119847843191E+001	9.4758775E-003	-1.0538294E+001	0
6.023199847841170E+001	9.4186040E-003	-1.0484161E+001	0
6.023299847838643E+001	9.4949678E-003	-1.0422389E+001	0
6.023399847836117E+001	9.4186040E-003	-1.0359977E+001	0
6.023499847833591E+001	9.5522413E-003	-1.0298839E+001	0
6.023599847831065E+001	9.5140589E-003	-1.0239613E+001	0
6.023679847829044E+001	9.4758775E-003	-1.0188664E+001	0
6.023799847826012E+001	9.4949678E-003	-1.0128800E+001	0
6.023879847823991E+001	9.4567863E-003	-1.0075305E+001	0
6.023999847820960E+001	9.3422402E-003	-1.0009073E+001	0
6.024119847817929E+001	9.4567863E-003	-9.9498463E+000	0
6.024199847815908E+001	9.5140589E-003	-9.8969870E+000	0
6.024319847812876E+001	9.4376951E-003	-9.8428555E+000	0
6.024399847810855E+001	9.4376951E-003	-9.7919064E+000	0
6.024499847808329E+001	9.4949678E-003	-9.7384119E+000	0
6.024619847805297E+001	9.4567863E-003	-9.6766376E+000	0
6.024719847802771E+001	9.5140589E-003	-9.6231422E+000	0
6.024819847800245E+001	9.4949678E-003	-9.5715570E+000	0
6.024939847797214E+001	9.3613314E-003	-9.5129671E+000	0
6.025059847794182E+001	9.4758775E-003	-9.4486456E+000	0
6.025179847791151E+001	9.5331501E-003	-9.3919668E+000	0
6.025279847788624E+001	9.5140589E-003	-9.3384705E+000	0
6.025399847785593E+001	9.4758775E-003	-9.2868862E+000	0
6.025519847782562E+001	9.5140589E-003	-9.2276592E+000	0
6.025639847779530E+001	9.4186040E-003	-9.1697054E+000	0
6.025759847776499E+001	9.4949678E-003	-9.1162100E+000	0
6.025879847773467E+001	9.4949678E-003	-9.0588942E+000	0
6.025999847770436E+001	9.6095139E-003	-9.0028505E+000	0
6.026119847767404E+001	9.3804216E-003	-8.9468088E+000	0
6.026259847763868E+001	9.4186040E-003	-8.8933134E+000	0
6.026379847760836E+001	9.4376951E-003	-8.8391809E+000	0
6.026479847758310E+001	9.5140589E-003	-8.7856855E+000	0
6.026619847754773E+001	9.4376951E-003	-8.7309170E+000	0
6.026739847751742E+001	9.4758775E-003	-8.6767845E+000	0
6.026879847748205E+001	9.4567863E-003	-8.6251993E+000	0
6.026999847745174E+001	9.4376951E-003	-8.5729780E+000	0
6.027139847741637E+001	9.3613314E-003	-8.5150251E+000	0
6.027299847737595E+001	9.4758775E-003	-8.4494295E+000	0
6.027439847734058E+001	9.3995128E-003	-8.3940229E+000	0
6.027599847730016E+001	9.5140589E-003	-8.3316126E+000	0
6.027739847726480E+001	9.4567863E-003	-8.2762060E+000	0
6.027899847722438E+001	9.3995128E-003	-8.2246218E+000	0
6.028039847718901E+001	9.4758775E-003	-8.1673050E+000	0
6.028179847715364E+001	9.3804216E-003	-8.1144457E+000	0
6.028339847711322E+001	9.4567863E-003	-8.0603151E+000	0
6.028499847707280E+001	9.5331501E-003	-8.0023613E+000	0
6.028659847703238E+001	9.4186040E-003	-7.9450445E+000	0
6.028799847699702E+001	9.4186040E-003	-7.8915491E+000	0
6.028979847695155E+001	9.4567863E-003	-7.8355060E+000	0
6.029119847691618E+001	9.6476963E-003	-7.7851958E+000	0
6.029279847687576E+001	9.4758775E-003	-7.7348847E+000	0
6.029439847683534E+001	9.4186040E-003	-7.6794786E+000	0
6.029599847679492E+001	9.4758775E-003	-7.6291676E+000	0
6.029759847675450E+001	9.4376951E-003	-7.5782199E+000	0
6.029919847671408E+001	9.3995128E-003	-7.5266352E+000	0
6.030099847666861E+001	9.3613314E-003	-7.4737768E+000	0
6.030279847662314E+001	9.4758775E-003	-7.4202809E+000	0
6.030439847658272E+001	9.5140589E-003	-7.3648753E+000	0
6.030619847653725E+001	9.3995128E-003	-7.3132906E+000	0
6.030819847648672E+001	9.4376951E-003	-7.2572484E+000	0
6.031019847643620E+001	9.5904237E-003	-7.1980209E+000	0
6.031199847639073E+001	9.4758775E-003	-7.1407046E+000	0
6.031419847633515E+001	9.4949678E-003	-7.0897565E+000	0
6.031619847628463E+001	9.6476963E-003	-7.0330768E+000	0
6.031819847623410E+001	9.4567863E-003	-6.9751234E+000	0
6.032039847617853E+001	9.3613314E-003	-6.9209919E+000	0
6.032239847612800E+001	9.5904237E-003	-6.8655858E+000	0
6.032439847607748E+001	9.4567863E-003	-6.8127275E+000	0
6.032679847601685E+001	9.4567863E-003	-6.7541370E+000	0
6.032899847596127E+001	9.3804216E-003	-6.6980944E+000	0
6.033119847590569E+001	9.4567863E-003	-6.6465101E+000	0
6.033339847585012E+001	9.5140589E-003	-6.5930142E+000	0
6.033579847578949E+001	9.3995128E-003	-6.5427036E+000	0
6.033759847574402E+001	9.5140589E-003	-6.4898443E+000	0
6.033999847568339E+001	9.6095139E-003	-6.4369860E+000	0
6.034239847562276E+001	9.3995128E-003	-6.3803067E+000	0
6.034479847556213E+001	9.5713325E-003	-6.3255377E+000	0
6.034759847549140E+001	9.4186040E-003	-6.2701321E+000	0
6.035019847542571E+001	9.5140589E-003	-6.2121792E+000	0
6.035279847536003E+001	9.3995128E-003	-6.1580467E+000	0
6.035539847529435E+001	9.4949678E-003	-6.1039143E+000	0
6.035799847522867E+001	9.3995128E-003	-6.0478721E+000	0
6.036099847515288E+001	9.4376951E-003	-5.9931026E+000	0
6.036359847508720E+001	9.5140589E-003	-5.9427919E+000	0
6.036639847501647E+001	9.4376951E-003	-5.8854756E+000	0
6.036939847494068E+001	9.3804216E-003	-5.8287954E+000	0
6.037239847486489E+001	9.4949678E-003	-5.7778478E+000	0
6.037539847478911E+001	9.3804216E-003	-5.7211680E+000	0
6.037839847471332E+001	9.4758775E-003	-5.6689463E+000	0
6.038119847464259E+001	9.5522413E-003	-5.6160884E+000	0
6.038459847455670E+001	9.4567863E-003	-5.5645037E+000	0
6.038739847448596E+001	9.3995128E-003	-5.5129185E+000	0
6.039079847440007E+001	9.5331501E-003	-5.4549651E+000	0
6.039439847430913E+001	9.5331501E-003	-5.3982859E+000	0
6.039779847422324E+001	9.5904237E-003	-5.3473377E+000	0
6.040119847413735E+001	9.3804216E-003	-5.2963896E+000	0
6.040419847406156E+001	9.4376951E-003	-5.2460790E+000	0
6.040819847396051E+001	9.4758775E-003	-5.1881256E+000	0
6.041219847385946E+001	9.4949678E-003	-5.1301723E+000	0
6.041619847375841E+001	9.4567863E-003	-5.0760403E+000	0
6.042019847365737E+001	9.4758775E-003	-5.0212708E+000	0
6.042379847356642E+001	9.4758775E-003	-4.9703226E+000	0
6.042779847346537E+001	9.4186040E-003	-4.9193754E+000	0
6.043159847336938E+001	9.3995128E-003	-4.8684273E+000	0
6.043599847325822E+001	9.4949678E-003	-4.8130212E+000	0
6.044039847314707E+001	9.4758775E-003	-4.7588892E+000	0
6.044459847304097E+001	9.5331501E-003	-4.7041202E+000	0
6.044959847291466E+001	9.4567863E-003	-4.6499882E+000	0
6.045419847279845E+001	9.5140589E-003	-4.5990400E+000	0
6.045879847268225E+001	9.3804216E-003	-4.5404496E+000	0
6.046419847254583E+001	9.4376951E-003	-4.4818602E+000	0
6.046939847241447E+001	9.3613314E-003	-4.4296384E+000	0
6.050359847155050E+001	9.3422402E-003	-4.1129003E+000	0
6.050959847139893E+001	9.4376951E-003	-4.0603161E+000	0
6.051559847124736E+001	9.4376951E-003	-4.0086222E+000	0
6.052199847108568E+001	9.4758775E-003	-3.9561651E+000	0
6.052839847092400E+001	9.4186040E-003	-3.9051085E+000	0
6.053499847075727E+001	9.4949678E-003	-3.8537972E+000	0
6.054159847059054E+001	9.5140589E-003	-3.8031223E+000	0
6.054859847041371E+001	9.3995128E-003	-3.7514927E+000	0
6.055579847023182E+001	9.4376951E-003	-3.6994810E+000	0
6.056319847004488E+001	9.4376951E-003	-3.6494429E+000	0
6.057079846985289E+001	9.3995128E-003	-3.5978134E+000	0
6.057859846965584E+001	9.4758775E-003	-3.5466292E+000	0
6.058679846944870E+001	9.4567863E-003	-3.4957638E+000	0
6.059499846924155E+001	9.3613314E-003	-3.4450252E+000	0
6.060359846902429E+001	9.4949678E-003	-3.3942232E+000	0
6.061239846880198E+001	9.4186040E-003	-3.3440578E+000	0
6.062159846856957E+001	9.4758775E-003	-3.2921736E+000	0
6.063119846832706E+001	9.4186040E-003	-3.2421355E+000	0
6.064099846807949E+001	9.3613314E-003	-3.1917155E+000	0
6.065099846782687E+001	9.4376951E-003	-3.1415496E+000	0
6.066139846756414E+001	9.4376951E-003	-3.0908754E+000	0
6.067239846728626E+001	9.3995128E-003	-3.0402005E+000	0
6.068379846699827E+001	9.3995128E-003	-2.9899075E+000	0
6.069559846670018E+001	9.4186040E-003	-2.9396150E+000	0
6.070779846639198E+001	9.4376951E-003	-2.8893223E+000	0
6.072039846607368E+001	9.4186040E-003	-2.8392842E+000	0
6.073379846573516E+001	9.4376951E-003	-2.7891822E+000	0
6.074799846537644E+001	9.4949678E-003	-2.7377439E+000	0
6.076239846501267E+001	9.4567863E-003	-2.6877058E+000	0
6.077779846462363E+001	9.4949678E-003	-2.6375401E+000	0
6.079359846422449E+001	9.4949678E-003	-2.5873749E+000	0
6.081059846379503E+001	9.4186040E-003	-2.5368273E+000	0
6.082839846334537E+001	9.4186040E-003	-2.4861526E+000	0
6.084679846288054E+001	9.4186040E-003	-2.4359872E+000	0
6.086639846238540E+001	9.3422402E-003	-2.3855672E+000	0
6.088699846186501E+001	9.5713325E-003	-2.3343832E+000	0
6.090859846131934E+001	9.4949678E-003	-2.2840266E+000	0
6.093119846074842E+001	9.4758775E-003	-2.2337339E+000	0
6.095519846014213E+001	9.3804216E-003	-2.1836958E+000	0
6.098039845950552E+001	9.4567863E-003	-2.1324482E+000	0
6.100739845882345E+001	9.5140589E-003	-2.0815823E+000	0
6.103559845811105E+001	9.5140589E-003	-2.0313532E+000	0
6.106499845736835E+001	9.5331501E-003	-1.9808058E+000	0
6.109679845656501E+001	9.4186040E-003	-1.9302585E+000	0
6.112979845573136E+001	9.5140589E-003	-1.8798383E+000	0
6.116499845484213E+001	9.3422402E-003	-1.8292273E+000	0
6.120199845390744E+001	9.4758775E-003	-1.7788709E+000	0
6.124159845290706E+001	9.3995128E-003	-1.7284508E+000	0
6.128279845186626E+001	9.3804216E-003	-1.6780944E+000	0
6.132759845073451E+001	9.4186040E-003	-1.6278015E+000	0
6.137459844954719E+001	9.4376951E-003	-1.5774451E+000	0
6.142579844825377E+001	9.3995128E-003	-1.5274072E+000	0
6.147999844688457E+001	9.4949678E-003	-1.4773054E+000	0
6.153699844544462E+001	9.4758775E-003	-1.4271399E+000	0
6.159959844386321E+001	9.4758775E-003	-1.3771018E+000	0
6.166799844213529E+001	9.3995128E-003	-1.3268728E+000	0
6.174179844027094E+001	9.5140589E-003	-1.2767711E+000	0
6.182119843826513E+001	9.4567863E-003	-1.2262872E+000	0
6.190779843607743E+001	9.4758775E-003	-1.1762491E+000	0
6.200379843365226E+001	9.4186040E-003	-1.1258291E+000	0
6.210879843099974E+001	9.4758775E-003	-1.0757910E+000	0
6.222539842805418E+001	9.3422402E-003	-1.0254983E+000	0
6.235459842479031E+001	9.4567863E-003	-9.7526914E-001	0
6.249919842113741E+001	9.3231490E-003	-9.2516732E-001	0
6.266259841700958E+001	9.3995128E-003	-8.7455618E-001	0
6.284999841227545E+001	9.4949678E-003	-8.2432711E-001	0
6.306319840688957E+001	9.5331501E-003	-7.7390707E-001	0
6.330939840067003E+001	9.4758775E-003	-7.2355074E-001	0
6.359479839346022E+001	9.5140589E-003	-6.7344892E-001	0
6.393739838480542E+001	9.4567863E-003	-6.2334716E-001	0
6.433119837485719E+001	9.4949678E-003	-5.7286346E-001	0
6.482019836250402E+001	9.4758775E-003	-5.2276164E-001	0
6.505279835662805E+001	9.4949678E-003	-5.0181693E-001	0
6.505339835659834E+001	9.4758775E-003	-5.0168961E-001	0
6.570679834009206E+001	9.4376951E-003	-4.5165151E-001	0
6.659099831775529E+001	9.4186040E-003	-4.0161172E-001	0
6.772339828914846E+001	9.3613314E-003	-3.5159138E-001	0
6.929599824942125E+001	9.4376951E-003	-3.0155191E-001	0
7.159459819135373E+001	9.5522413E-003	-2.5153795E-001	0
7.524599809911160E+001	9.3995128E-003	-2.0147298E-001	0
8.175399793470569E+001	9.4758775E-003	-1.5138260E-001	0
9.175399768208445E+001	9.5140589E-003	-1.1266395E-001	0
1.017539974294632E+002	9.3995128E-003	-9.1353074E-002	0
1.117539971768419E+002	9.5331501E-003	-7.6625854E-002	0
1.217539969242207E+002	9.4376951E-003	-6.5967247E-002	0
1.317539966715995E+002	9.4186040E-003	-5.7925526E-002	0
1.417539964189782E+002	9.4567863E-003	-5.2163251E-002	0
1.517539961663570E+002	9.2849666E-003	-4.7228701E-002	0
1.617539959137357E+002	9.3804216E-003	-4.3384947E-002	0
1.717539956611145E+002	9.4376951E-003	-3.9934471E-002	0
1.742895955970598E+002	9.3995128E-003	-3.9177038E-002	0
1.742897955970548E+002	9.4567863E-003	-3.9280150E-002	0