time/s	Ewe/V	I/mA	error	
6.005299848293362E+001	2.8037596E+000	-2.5006020E-002	0
6.017319847989711E+001	9.0123406E-003	-1.4738717E+001	0
6.017359847988700E+001	8.9550773E-003	-1.4682099E+001	0
6.017399847987690E+001	9.0314280E-003	-1.4622300E+001	0
6.017439847986680E+001	9.1841305E-003	-1.4567592E+001	0
6.017479847985669E+001	8.9550773E-003	-1.4507792E+001	0
6.017519847984659E+001	9.0123406E-003	-1.4453083E+001	0
6.017559847983648E+001	9.0886913E-003	-1.4394558E+001	0
6.017599847982638E+001	9.0886913E-003	-1.4336668E+001	0
6.017639847981627E+001	9.1077797E-003	-1.4278778E+001	0
6.017679847980617E+001	9.1459546E-003	-1.4223432E+001	0
6.017719847979606E+001	9.0314280E-003	-1.4160453E+001	0
6.017779847978090E+001	9.0886913E-003	-1.4086659E+001	0
6.017819847977080E+001	9.0123406E-003	-1.4030678E+001	0
6.017859847976069E+001	9.0123406E-003	-1.3977878E+001	0
6.017919847974554E+001	9.0123406E-003	-1.3898358E+001	0
6.017959847973543E+001	9.1268672E-003	-1.3846830E+001	0
6.018019847972027E+001	9.1077797E-003	-1.3765402E+001	0
6.018079847970512E+001	9.1077797E-003	-1.3687155E+001	0
6.018119847969501E+001	9.0886913E-003	-1.3634992E+001	0
6.018159847968491E+001	8.9932531E-003	-1.3583463E+001	0
6.018219847966975E+001	9.1077797E-003	-1.3509667E+001	0
6.018279847965459E+001	9.1650430E-003	-1.3437147E+001	0
6.018319847964449E+001	9.0505164E-003	-1.3383074E+001	0
6.018379847962933E+001	9.1841305E-003	-1.3310554E+001	0
6.018439847961417E+001	8.9932531E-003	-1.3236758E+001	0
6.018499847959902E+001	9.1268672E-003	-1.3161694E+001	0
6.018559847958386E+001	9.1077797E-003	-1.3091715E+001	0
6.018619847956870E+001	9.0696039E-003	-1.3017921E+001	0
6.018679847955354E+001	9.0696039E-003	-1.2954305E+001	0
6.018739847953839E+001	9.0886913E-003	-1.2883058E+001	0
6.018799847952323E+001	9.0505164E-003	-1.2811808E+001	0
6.018859847950807E+001	9.1268672E-003	-1.2743739E+001	0
6.018919847949292E+001	9.1268672E-003	-1.2670582E+001	0
6.018979847947776E+001	9.0123406E-003	-1.2604422E+001	0
6.019039847946260E+001	9.1841305E-003	-1.2540807E+001	0
6.019099847944744E+001	8.9741647E-003	-1.2470830E+001	0
6.019159847943229E+001	9.0886913E-003	-1.2403398E+001	0
6.019219847941713E+001	9.1077797E-003	-1.2346144E+001	0
6.019279847940197E+001	9.0696039E-003	-1.2276802E+001	0
6.019339847938681E+001	9.1077797E-003	-1.2219549E+001	0
6.019399847937166E+001	9.0696039E-003	-1.2150845E+001	0
6.019459847935650E+001	9.1077797E-003	-1.2087865E+001	0
6.019519847934134E+001	8.9932531E-003	-1.2030611E+001	0
6.019579847932619E+001	9.0505164E-003	-1.1973994E+001	0
6.019639847931103E+001	9.0505164E-003	-1.1903380E+001	0
6.019699847929587E+001	8.9741647E-003	-1.1849944E+001	0
6.019759847928071E+001	9.1077797E-003	-1.1785692E+001	0
6.019819847926556E+001	9.0505164E-003	-1.1725894E+001	0
6.019879847925040E+001	9.0696039E-003	-1.1673729E+001	0
6.019939847923524E+001	9.0505164E-003	-1.1619020E+001	0
6.019999847922008E+001	9.1268672E-003	-1.1559857E+001	0
6.020059847920493E+001	9.0696039E-003	-1.1499424E+001	0
6.020119847918977E+001	8.9741647E-003	-1.1438353E+001	0
6.020179847917461E+001	9.1268672E-003	-1.1388096E+001	0
6.020239847915946E+001	9.2032189E-003	-1.1323208E+001	0
6.020299847914430E+001	9.0886913E-003	-1.1271680E+001	0
6.020359847912914E+001	9.0314280E-003	-1.1215698E+001	0
6.020419847911398E+001	9.0314280E-003	-1.1164170E+001	0
6.020499847909377E+001	9.1268672E-003	-1.1096102E+001	0
6.020559847907862E+001	8.9932531E-003	-1.1033759E+001	0
6.020639847905841E+001	9.0696039E-003	-1.0967598E+001	0
6.020719847903820E+001	9.0696039E-003	-1.0907801E+001	0
6.020779847902304E+001	9.0886913E-003	-1.0853091E+001	0
6.020839847900788E+001	9.0886913E-003	-1.0795837E+001	0
6.020899847899273E+001	9.0505164E-003	-1.0744945E+001	0
6.020979847897252E+001	9.0886913E-003	-1.0684511E+001	0
6.021039847895736E+001	9.1268672E-003	-1.0632982E+001	0
6.021099847894220E+001	9.0314280E-003	-1.0580180E+001	0
6.021159847892704E+001	9.0886913E-003	-1.0529925E+001	0
6.021239847890683E+001	9.0696039E-003	-1.0463130E+001	0
6.021319847888662E+001	9.0696039E-003	-1.0405239E+001	0
6.021379847887147E+001	9.1841305E-003	-1.0353711E+001	0
6.021459847885126E+001	9.0886913E-003	-1.0292640E+001	0
6.021539847883105E+001	9.0314280E-003	-1.0232204E+001	0
6.021619847881084E+001	9.0505164E-003	-1.0171134E+001	0
6.021699847879063E+001	9.1077797E-003	-1.0110700E+001	0
6.021779847877042E+001	9.1077797E-003	-1.0049628E+001	0
6.021859847875021E+001	9.0696039E-003	-9.9949198E+000	0
6.021939847873000E+001	9.1077797E-003	-9.9351215E+000	0
6.022019847870979E+001	9.1077797E-003	-9.8848648E+000	0
6.022079847869463E+001	9.0314280E-003	-9.8257027E+000	0
6.022179847866937E+001	9.0505164E-003	-9.7639961E+000	0
6.022259847864916E+001	8.9932531E-003	-9.6991091E+000	0
6.022359847862390E+001	9.0123406E-003	-9.6405821E+000	0
6.022439847860369E+001	9.1841305E-003	-9.5846014E+000	0
6.022519847858348E+001	8.9932531E-003	-9.5337076E+000	0
6.022599847856327E+001	9.0886913E-003	-9.4739103E+000	0
6.022679847854306E+001	9.0505164E-003	-9.4134750E+000	0
6.022779847851780E+001	9.0886913E-003	-9.3574944E+000	0
6.022859847849759E+001	9.1077797E-003	-9.3008757E+000	0
6.022959847847233E+001	9.0696039E-003	-9.2385330E+000	0
6.023059847844706E+001	9.0886913E-003	-9.1755533E+000	0
6.023159847842180E+001	9.0696039E-003	-9.1189365E+000	0
6.023259847839654E+001	9.0886913E-003	-9.0591373E+000	0
6.023339847837633E+001	9.0314280E-003	-9.0044289E+000	0
6.023439847835107E+001	9.0696039E-003	-8.9503555E+000	0
6.023519847833086E+001	9.0314280E-003	-8.8937378E+000	0
6.023619847830560E+001	9.0505164E-003	-8.8358479E+000	0
6.023719847828033E+001	9.1077797E-003	-8.7805023E+000	0
6.023819847825507E+001	9.1459546E-003	-8.7219772E+000	0
6.023919847822981E+001	8.9932531E-003	-8.6672668E+000	0
6.024019847820455E+001	9.0314280E-003	-8.6087408E+000	0
6.024119847817929E+001	9.0696039E-003	-8.5540323E+000	0
6.024219847815402E+001	9.1268672E-003	-8.5012312E+000	0
6.024319847812876E+001	9.0886913E-003	-8.4484301E+000	0
6.024419847810350E+001	9.0886913E-003	-8.3943567E+000	0
6.024519847807824E+001	9.0314280E-003	-8.3409195E+000	0
6.024619847805297E+001	9.2413938E-003	-8.2887564E+000	0
6.024719847802771E+001	9.1841305E-003	-8.2353191E+000	0
6.024819847800245E+001	9.0505164E-003	-8.1837902E+000	0
6.024939847797214E+001	9.0505164E-003	-8.1303539E+000	0
6.025039847794687E+001	9.0886913E-003	-8.0737352E+000	0
6.025159847791656E+001	9.0886913E-003	-8.0202990E+000	0
6.025259847789130E+001	9.1841305E-003	-7.9681349E+000	0
6.025379847786098E+001	9.0123406E-003	-7.9115157E+000	0
6.025499847783067E+001	9.0123406E-003	-7.8606243E+000	0
6.025619847780035E+001	9.2413938E-003	-7.8040071E+000	0
6.025739847777004E+001	9.1077797E-003	-7.7429361E+000	0
6.025879847773467E+001	9.0314280E-003	-7.6825008E+000	0
6.025999847770436E+001	9.1077797E-003	-7.6316094E+000	0
6.026119847767404E+001	9.1268672E-003	-7.5800805E+000	0
6.026239847764373E+001	9.1077797E-003	-7.5272799E+000	0
6.026379847760836E+001	9.0314280E-003	-7.4655733E+000	0
6.026519847757299E+001	9.0696039E-003	-7.4089551E+000	0
6.026639847754268E+001	9.0123406E-003	-7.3523378E+000	0
6.026799847750226E+001	9.0123406E-003	-7.2880864E+000	0
6.026939847746689E+001	9.0696039E-003	-7.2340136E+000	0
6.027079847743153E+001	9.1650430E-003	-7.1754875E+000	0
6.027239847739111E+001	9.0314280E-003	-7.1201415E+000	0
6.027399847735069E+001	9.0886913E-003	-7.0546179E+000	0
6.027539847731532E+001	8.9741647E-003	-6.9999084E+000	0
6.027719847726985E+001	9.0696039E-003	-6.9324765E+000	0
6.027879847722943E+001	9.0886913E-003	-6.8796763E+000	0
6.028019847719406E+001	9.0314280E-003	-6.8230581E+000	0
6.028199847714859E+001	9.1650430E-003	-6.7600789E+000	0
6.028379847710312E+001	8.9741647E-003	-6.7034607E+000	0
6.028519847706775E+001	9.0314280E-003	-6.6512961E+000	0
6.028699847702228E+001	9.0505164E-003	-6.5997682E+000	0
6.028859847698186E+001	9.0696039E-003	-6.5412416E+000	0
6.029039847693639E+001	9.0123406E-003	-6.4846244E+000	0
6.029179847690102E+001	9.1268672E-003	-6.4343677E+000	0
6.029339847686060E+001	9.1650430E-003	-6.3822041E+000	0
6.029519847681513E+001	9.1268672E-003	-6.3281307E+000	0
6.029699847676966E+001	8.9932531E-003	-6.2778740E+000	0
6.029859847672924E+001	9.0886913E-003	-6.2244377E+000	0
6.030059847667872E+001	9.0505164E-003	-6.1716371E+000	0
6.030219847663830E+001	9.0314280E-003	-6.1181998E+000	0
6.030399847659282E+001	9.1459546E-003	-6.0673075E+000	0
6.030579847654735E+001	9.1650430E-003	-6.0157795E+000	0
6.030779847649683E+001	9.0886913E-003	-5.9655232E+000	0
6.030959847645136E+001	9.1459546E-003	-5.9114499E+000	0
6.031159847640083E+001	9.0886913E-003	-5.8605580E+000	0
6.031379847634526E+001	9.0505164E-003	-5.8013959E+000	0
6.031599847628968E+001	9.0314280E-003	-5.7403250E+000	0
6.031839847622905E+001	9.0314280E-003	-5.6817985E+000	0
6.032079847616842E+001	9.1268672E-003	-5.6213636E+000	0
6.032299847611284E+001	9.0123406E-003	-5.5698357E+000	0
6.032519847605727E+001	9.0696039E-003	-5.5195794E+000	0
6.032739847600169E+001	9.0505164E-003	-5.4661427E+000	0
6.032959847594611E+001	9.0886913E-003	-5.4082527E+000	0
6.033239847587538E+001	9.0886913E-003	-5.3529072E+000	0
6.033479847581475E+001	9.1841305E-003	-5.3026509E+000	0
6.033719847575412E+001	9.1077797E-003	-5.2498503E+000	0
6.033959847569349E+001	9.0696039E-003	-5.1995940E+000	0
6.034199847563286E+001	8.9932531E-003	-5.1448855E+000	0
6.034479847556213E+001	9.0314280E-003	-5.0939927E+000	0
6.034739847549645E+001	9.0886913E-003	-5.0405560E+000	0
6.034999847543077E+001	9.1459546E-003	-4.9890270E+000	0
6.035259847536508E+001	9.1077797E-003	-4.9368625E+000	0
6.035559847528930E+001	9.0123406E-003	-4.8859706E+000	0
6.035839847521856E+001	9.0123406E-003	-4.8350782E+000	0
6.036159847513773E+001	9.0696039E-003	-4.7829137E+000	0
6.036419847507204E+001	9.0314280E-003	-4.7288404E+000	0
6.036719847499626E+001	9.0314280E-003	-4.6754036E+000	0
6.037099847490026E+001	9.1077797E-003	-4.6187859E+000	0
6.037399847482448E+001	9.0314280E-003	-4.5666208E+000	0
6.037739847473858E+001	9.0314280E-003	-4.5144567E+000	0
6.038059847465775E+001	9.1077797E-003	-4.4616556E+000	0
6.038439847456175E+001	9.0505164E-003	-4.4094915E+000	0
6.038799847447081E+001	8.9932531E-003	-4.3560548E+000	0
6.039159847437986E+001	9.0314280E-003	-4.3057985E+000	0
6.039579847427376E+001	9.0886913E-003	-4.2517252E+000	0
6.039939847418282E+001	9.0886913E-003	-4.1944714E+000	0
6.040359847407672E+001	9.0886913E-003	-4.1442151E+000	0
6.040779847397062E+001	9.0886913E-003	-4.0920506E+000	0
6.041199847386451E+001	9.0314280E-003	-4.0347972E+000	0
6.041599847376347E+001	9.0505164E-003	-3.9832685E+000	0
6.042119847363210E+001	9.0696039E-003	-3.9323761E+000	0
6.042519847353105E+001	9.1077797E-003	-3.8814838E+000	0
6.042999847340980E+001	9.0314280E-003	-3.8299553E+000	0
6.043519847327843E+001	9.0314280E-003	-3.7765183E+000	0
6.044019847315212E+001	9.0696039E-003	-3.7237177E+000	0
6.044519847302581E+001	9.0314280E-003	-3.6721895E+000	0
6.045099847287929E+001	8.9932531E-003	-3.6219330E+000	0
6.045619847274793E+001	9.0696039E-003	-3.5697687E+000	0
6.046179847260646E+001	9.1268672E-003	-3.5182402E+000	0
6.046779847245489E+001	9.0123406E-003	-3.4622586E+000	0
6.050359847155050E+001	9.0123406E-003	-3.2214777E+000	0
6.051079847136862E+001	9.0505164E-003	-3.1712270E+000	0
6.051799847118673E+001	8.9169014E-003	-3.1203403E+000	0
6.052579847098968E+001	9.0123406E-003	-3.0690086E+000	0
6.053379847078759E+001	9.0696039E-003	-3.0187578E+000	0
6.054199847058044E+001	9.0505164E-003	-2.9686983E+000	0
6.055039847036824E+001	9.0696039E-003	-2.9181931E+000	0
6.055919847014593E+001	9.0505164E-003	-2.8681333E+000	0
6.056839846991352E+001	8.9741647E-003	-2.8180099E+000	0
6.057779846967605E+001	9.0696039E-003	-2.7676320E+000	0
6.058779846942343E+001	9.0314280E-003	-2.7164910E+000	0
6.059819846916071E+001	9.1268672E-003	-2.6661129E+000	0
6.060899846888788E+001	9.1077797E-003	-2.6152265E+000	0
6.062019846860494E+001	9.0505164E-003	-2.5645943E+000	0
6.063179846831190E+001	9.0696039E-003	-2.5144708E+000	0
6.064419846799865E+001	9.1077797E-003	-2.4640293E+000	0
6.065699846767529E+001	9.0505164E-003	-2.4121246E+000	0
6.067059846733173E+001	9.0696039E-003	-2.3614926E+000	0
6.068459846697806E+001	9.0505164E-003	-2.3102243E+000	0
6.069939846660418E+001	9.1268672E-003	-2.2594647E+000	0
6.071499846621009E+001	9.1077797E-003	-2.2089598E+000	0
6.073099846580590E+001	9.0314280E-003	-2.1588998E+000	0
6.074799846537644E+001	9.0505164E-003	-2.1088400E+000	0
6.076599846492172E+001	9.0314280E-003	-2.0582078E+000	0
6.078479846444679E+001	9.0123406E-003	-2.0078299E+000	0
6.080479846394155E+001	9.1459546E-003	-1.9575156E+000	0
6.082619846340094E+001	9.0886913E-003	-1.9068197E+000	0
6.084879846283002E+001	9.1841305E-003	-1.8556786E+000	0
6.087299846221867E+001	9.1268672E-003	-1.8053007E+000	0
6.089879846156691E+001	9.0696039E-003	-1.7550502E+000	0
6.092639846086968E+001	9.1841305E-003	-1.7041633E+000	0
6.095579846012697E+001	9.1077797E-003	-1.6536583E+000	0
6.098739845932869E+001	9.0696039E-003	-1.6020085E+000	0
6.102179845845967E+001	9.0696039E-003	-1.5517576E+000	0
6.105799845754518E+001	8.9550773E-003	-1.5013163E+000	0
6.109699845655996E+001	9.0886913E-003	-1.4511927E+000	0
6.113959845548379E+001	9.0696039E-003	-1.4006878E+000	0
6.118599845431163E+001	9.0123406E-003	-1.3501829E+000	0
6.123579845305358E+001	8.9741647E-003	-1.2999958E+000	0
6.129019845167932E+001	9.0696039E-003	-1.2495543E+000	0
6.135039845015854E+001	9.1077797E-003	-1.1994309E+000	0
6.141619844849629E+001	9.0314280E-003	-1.1493075E+000	0
6.148979844663700E+001	8.9550773E-003	-1.0989296E+000	0
6.157059844459582E+001	8.9932531E-003	-1.0488063E+000	0
6.165959844234749E+001	8.9359898E-003	-9.9861920E-001	0
6.176119843978086E+001	9.0505164E-003	-9.4855934E-001	0
6.187599843688076E+001	8.9932531E-003	-8.9792705E-001	0
6.200959843350574E+001	9.0886913E-003	-8.4748560E-001	0
6.216319842962548E+001	9.1268672E-003	-7.9717135E-001	0
6.234219842510356E+001	9.0314280E-003	-7.4666637E-001	0
6.255519841972273E+001	9.0696039E-003	-6.9660658E-001	0
6.280659841337183E+001	9.0886913E-003	-6.4648312E-001	0
6.311359840561636E+001	9.0314280E-003	-5.9629613E-001	0
6.349259839604201E+001	9.0314280E-003	-5.4610914E-001	0
6.396079838421429E+001	9.0696039E-003	-4.9604928E-001	0
6.456219836902164E+001	9.0505164E-003	-4.4573504E-001	0
6.505279835662805E+001	9.1077797E-003	-4.1792166E-001	0
6.505339835659834E+001	9.0505164E-003	-4.1669375E-001	0
6.602299833210418E+001	9.0123406E-003	-3.6667126E-001	0
6.736519829819736E+001	9.0886913E-003	-3.1666151E-001	0
6.938479824717797E+001	9.0696039E-003	-2.6660085E-001	0
7.259859816599055E+001	9.0505164E-003	-2.1652749E-001	0
7.801779802909005E+001	9.1650430E-003	-1.6651773E-001	0
8.801779777646880E+001	9.1077797E-003	-1.2198616E-001	0
9.801779752384755E+001	8.9741647E-003	-9.8431952E-002	0
1.080177972712263E+002	9.0696039E-003	-8.3479933E-002	0
1.180177970186051E+002	9.1077797E-003	-7.3350735E-002	0
1.280177967659838E+002	9.0696039E-003	-6.5792017E-002	0
1.380177965133626E+002	8.9932531E-003	-5.9550337E-002	0
1.480177962607413E+002	9.0505164E-003	-5.4975655E-002	0
1.580177960081201E+002	8.9932531E-003	-5.0878163E-002	0
1.680177957554988E+002	8.9359898E-003	-4.7805045E-002	0
1.780177955028776E+002	9.1650430E-003	-4.5213841E-002	0
1.880177952502563E+002	9.1268672E-003	-4.2731736E-002	0
1.980177949976351E+002	9.0696039E-003	-4.0483717E-002	0
2.043069948387565E+002	8.9741647E-003	-3.9181598E-002	0
2.043071948387515E+002	9.1268672E-003	-3.9310724E-002	0