time/s	Ewe/V	I/mA	error	
6.005299848293362E+001	2.8694918E+000	-2.5020160E-002	0
6.017319847989711E+001	9.4226198E-003	-1.4164575E+001	0
6.017359847988700E+001	9.3462700E-003	-1.4114275E+001	0
6.017399847987690E+001	9.3271835E-003	-1.4049971E+001	0
6.017439847986680E+001	9.4417064E-003	-1.3987575E+001	0
6.017499847985164E+001	9.3653575E-003	-1.3911807E+001	0
6.017539847984153E+001	9.3271835E-003	-1.3855780E+001	0
6.017599847982638E+001	9.2890086E-003	-1.3774919E+001	0
6.017639847981627E+001	9.4417064E-003	-1.3714434E+001	0
6.017679847980617E+001	9.4798813E-003	-1.3660952E+001	0
6.017739847979101E+001	9.3462700E-003	-1.3590916E+001	0
6.017779847978090E+001	9.3844449E-003	-1.3538706E+001	0
6.017819847977080E+001	9.4798813E-003	-1.3483951E+001	0
6.017859847976069E+001	9.3271835E-003	-1.3429832E+001	0
6.017919847974554E+001	9.3080960E-003	-1.3354702E+001	0
6.017979847973038E+001	9.4035324E-003	-1.3278298E+001	0
6.018019847972027E+001	9.3653575E-003	-1.3226727E+001	0
6.018079847970512E+001	9.3844449E-003	-1.3152872E+001	0
6.018139847968996E+001	9.3653575E-003	-1.3083470E+001	0
6.018199847967480E+001	9.3462700E-003	-1.3007705E+001	0
6.018239847966470E+001	9.3462700E-003	-1.2956769E+001	0
6.018299847964954E+001	9.3462700E-003	-1.2890553E+001	0
6.018359847963438E+001	9.3080960E-003	-1.2814150E+001	0
6.018419847961923E+001	9.2890086E-003	-1.2744115E+001	0
6.018479847960407E+001	9.3080960E-003	-1.2679808E+001	0
6.018539847958891E+001	9.4417064E-003	-1.2604679E+001	0
6.018599847957375E+001	9.2699211E-003	-1.2545467E+001	0
6.018659847955860E+001	9.4417064E-003	-1.2473520E+001	0
6.018719847954344E+001	9.4417064E-003	-1.2415582E+001	0
6.018759847953334E+001	9.4607938E-003	-1.2364009E+001	0
6.018819847951818E+001	9.4607938E-003	-1.2304160E+001	0
6.018879847950302E+001	9.3653575E-003	-1.2238581E+001	0
6.018939847948786E+001	9.4035324E-003	-1.2175548E+001	0
6.018999847947271E+001	9.3653575E-003	-1.2104239E+001	0
6.019059847945755E+001	9.3271835E-003	-1.2052030E+001	0
6.019099847944744E+001	9.3653575E-003	-1.1998548E+001	0
6.019159847943229E+001	9.4417064E-003	-1.1945065E+001	0
6.019219847941713E+001	9.3844449E-003	-1.1888400E+001	0
6.019279847940197E+001	9.4035324E-003	-1.1824094E+001	0
6.019339847938681E+001	9.3462700E-003	-1.1766155E+001	0
6.019399847937166E+001	9.4035324E-003	-1.1698666E+001	0
6.019459847935650E+001	9.3271835E-003	-1.1645184E+001	0
6.019519847934134E+001	9.4417064E-003	-1.1591702E+001	0
6.019579847932619E+001	9.4035324E-003	-1.1536946E+001	0
6.019639847931103E+001	9.4417064E-003	-1.1477734E+001	0
6.019699847929587E+001	9.3080960E-003	-1.1420431E+001	0
6.019759847928071E+001	9.3271835E-003	-1.1361855E+001	0
6.019819847926556E+001	9.3462700E-003	-1.1310920E+001	0
6.019879847925040E+001	9.3653575E-003	-1.1257438E+001	0
6.019939847923524E+001	9.3080960E-003	-1.1205866E+001	0
6.019999847922008E+001	9.4607938E-003	-1.1152383E+001	0
6.020059847920493E+001	9.3844449E-003	-1.1096992E+001	0
6.020139847918472E+001	9.4417064E-003	-1.1029501E+001	0
6.020199847916956E+001	9.3844449E-003	-1.0977294E+001	0
6.020259847915440E+001	9.3844449E-003	-1.0925085E+001	0
6.020339847913419E+001	9.2699211E-003	-1.0856322E+001	0
6.020419847911398E+001	9.3844449E-003	-1.0783102E+001	0
6.020499847909377E+001	9.2890086E-003	-1.0727709E+001	0
6.020579847907356E+001	9.4417064E-003	-1.0655764E+001	0
6.020659847905335E+001	9.3080960E-003	-1.0598461E+001	0
6.020719847903820E+001	9.3844449E-003	-1.0546252E+001	0
6.020799847901799E+001	9.4417064E-003	-1.0490224E+001	0
6.020879847899778E+001	9.4417064E-003	-1.0419551E+001	0
6.020959847897757E+001	9.4607938E-003	-1.0366068E+001	0
6.021039847895736E+001	9.3653575E-003	-1.0304946E+001	0
6.021099847894220E+001	9.3462700E-003	-1.0254010E+001	0
6.021179847892199E+001	9.4607938E-003	-1.0194160E+001	0
6.021259847890178E+001	9.3653575E-003	-1.0135586E+001	0
6.021339847888157E+001	9.2508346E-003	-1.0076373E+001	0
6.021419847886136E+001	9.3844449E-003	-1.0023528E+001	0
6.021499847884115E+001	9.4607938E-003	-9.9674988E+000	0
6.021579847882094E+001	9.4607938E-003	-9.9063759E+000	0
6.021659847880073E+001	9.3462700E-003	-9.8509846E+000	0
6.021739847878052E+001	9.4417064E-003	-9.7968655E+000	0
6.021799847876537E+001	9.4035324E-003	-9.7465668E+000	0
6.021899847874010E+001	9.3844449E-003	-9.6886272E+000	0
6.021979847871989E+001	9.3653575E-003	-9.6351452E+000	0
6.022059847869969E+001	9.4226198E-003	-9.5797529E+000	0
6.022139847867948E+001	9.3653575E-003	-9.5249987E+000	0
6.022239847865421E+001	9.3271835E-003	-9.4613285E+000	0
6.022339847862895E+001	9.3653575E-003	-9.4021158E+000	0
6.022419847860874E+001	9.3462700E-003	-9.3429041E+000	0
6.022519847858348E+001	9.3080960E-003	-9.2906942E+000	0
6.022619847855822E+001	9.3080960E-003	-9.2251158E+000	0
6.022719847853296E+001	9.2699211E-003	-9.1620836E+000	0
6.022819847850769E+001	9.3080960E-003	-9.1028709E+000	0
6.022919847848243E+001	9.2890086E-003	-9.0449314E+000	0
6.023039847845212E+001	9.4226198E-003	-8.9723482E+000	0
6.023139847842685E+001	9.3653575E-003	-8.9182291E+000	0
6.023239847840159E+001	9.4035324E-003	-8.8641109E+000	0
6.023319847838138E+001	9.3844449E-003	-8.8138123E+000	0
6.023419847835612E+001	9.4989687E-003	-8.7609673E+000	0
6.023519847833086E+001	9.3653575E-003	-8.7093954E+000	0
6.023619847830560E+001	9.3271835E-003	-8.6495457E+000	0
6.023739847827528E+001	9.4226198E-003	-8.5979738E+000	0
6.023839847825002E+001	9.3844449E-003	-8.5413084E+000	0
6.023939847822476E+001	9.4035324E-003	-8.4852791E+000	0
6.024059847819444E+001	9.4417064E-003	-8.4184265E+000	0
6.024199847815908E+001	9.4035324E-003	-8.3560305E+000	0
6.024299847813381E+001	9.3462700E-003	-8.3012743E+000	0
6.024399847810855E+001	9.4035324E-003	-8.2503395E+000	0
6.024539847807318E+001	9.4035324E-003	-8.1860332E+000	0
6.024659847804287E+001	9.3462700E-003	-8.1287317E+000	0
6.024779847801256E+001	9.3653575E-003	-8.0733395E+000	0
6.024899847798224E+001	9.3653575E-003	-8.0179472E+000	0
6.025019847795193E+001	9.4798813E-003	-7.9593706E+000	0
6.025139847792161E+001	9.3653575E-003	-7.9065256E+000	0
6.025279847788624E+001	9.3080960E-003	-7.8473129E+000	0
6.025399847785593E+001	9.4607938E-003	-7.7919207E+000	0
6.025519847782562E+001	9.4226198E-003	-7.7365289E+000	0
6.025659847779025E+001	9.3271835E-003	-7.6811371E+000	0
6.025779847775993E+001	9.3462700E-003	-7.6282911E+000	0
6.025919847772457E+001	9.3844449E-003	-7.5748086E+000	0
6.026059847768920E+001	9.3462700E-003	-7.5079560E+000	0
6.026199847765383E+001	9.3462700E-003	-7.4500175E+000	0
6.026339847761847E+001	9.3653575E-003	-7.3927150E+000	0
6.026499847757805E+001	9.3844449E-003	-7.3347759E+000	0
6.026659847753763E+001	9.3844449E-003	-7.2774730E+000	0
6.026799847750226E+001	9.3271835E-003	-7.2252650E+000	0
6.026939847746689E+001	9.3653575E-003	-7.1685991E+000	0
6.027099847742647E+001	9.3271835E-003	-7.1157537E+000	0
6.027239847739111E+001	9.4417064E-003	-7.0590882E+000	0
6.027379847735574E+001	9.3653575E-003	-7.0075164E+000	0
6.027539847731532E+001	9.3271835E-003	-6.9553070E+000	0
6.027699847727490E+001	9.3462700E-003	-6.8986411E+000	0
6.027859847723448E+001	9.2317471E-003	-6.8407030E+000	0
6.028059847718396E+001	9.2317471E-003	-6.7827635E+000	0
6.028219847714354E+001	9.4989687E-003	-6.7273712E+000	0
6.028379847710312E+001	9.3080960E-003	-6.6694326E+000	0
6.028559847705765E+001	9.2890086E-003	-6.6159501E+000	0
6.028739847701218E+001	9.3653575E-003	-6.5631042E+000	0
6.028939847696165E+001	9.4035324E-003	-6.4975257E+000	0
6.029139847691113E+001	9.3462700E-003	-6.4383130E+000	0
6.029319847686565E+001	9.3271835E-003	-6.3854675E+000	0
6.029499847682018E+001	9.3271835E-003	-6.3300748E+000	0
6.029699847676966E+001	9.3271835E-003	-6.2772298E+000	0
6.029879847672419E+001	9.3653575E-003	-6.2262945E+000	0
6.030079847667366E+001	9.3462700E-003	-6.1677189E+000	0
6.030279847662314E+001	9.4226198E-003	-6.1129632E+000	0
6.030499847656756E+001	9.3462700E-003	-6.0582080E+000	0
6.030699847651704E+001	9.4798813E-003	-6.0053620E+000	0
6.030919847646146E+001	9.3080960E-003	-5.9544272E+000	0
6.031119847641094E+001	9.3462700E-003	-5.9034915E+000	0
6.031319847636041E+001	9.3462700E-003	-5.8480992E+000	0
6.031539847630484E+001	9.3844449E-003	-5.7952538E+000	0
6.031759847624926E+001	9.4226198E-003	-5.7430449E+000	0
6.032019847618358E+001	9.3271835E-003	-5.6863790E+000	0
6.032219847613305E+001	9.3653575E-003	-5.6328969E+000	0
6.032459847607242E+001	9.3844449E-003	-5.5825987E+000	0
6.032699847601180E+001	9.3271835E-003	-5.5272064E+000	0
6.032979847594106E+001	9.3271835E-003	-5.4724507E+000	0
6.033219847588043E+001	9.3653575E-003	-5.4208784E+000	0
6.033459847581980E+001	9.4226198E-003	-5.3578458E+000	0
6.033799847573391E+001	9.3653575E-003	-5.3037271E+000	0
6.034039847567328E+001	9.3462700E-003	-5.2521553E+000	0
6.034319847560255E+001	9.3080960E-003	-5.1986732E+000	0
6.034619847552676E+001	9.3271835E-003	-5.1413708E+000	0
6.034899847545603E+001	9.3844449E-003	-5.0885248E+000	0
6.035159847539035E+001	9.3844449E-003	-5.0369530E+000	0
6.035479847530951E+001	9.3653575E-003	-4.9847445E+000	0
6.035779847523372E+001	9.4989687E-003	-4.9344454E+000	0
6.036059847516299E+001	9.4035324E-003	-4.8822370E+000	0
6.036419847507204E+001	9.4035324E-003	-4.8281178E+000	0
6.036719847499626E+001	9.3653575E-003	-4.7771826E+000	0
6.037059847491037E+001	9.4226198E-003	-4.7224269E+000	0
6.037419847481942E+001	9.3653575E-003	-4.6708546E+000	0
6.037739847473858E+001	9.3080960E-003	-4.6205564E+000	0
6.038099847464764E+001	9.3653575E-003	-4.5670743E+000	0
6.038439847456175E+001	9.4226198E-003	-4.5148654E+000	0
6.038839847446070E+001	9.3844449E-003	-4.4645662E+000	0
6.039219847436470E+001	9.3653575E-003	-4.4117212E+000	0
6.039559847427881E+001	9.4226198E-003	-4.3614221E+000	0
6.039999847416766E+001	9.3653575E-003	-4.3092141E+000	0
6.040439847405651E+001	9.3653575E-003	-4.2570052E+000	0
6.040799847396556E+001	9.3271835E-003	-4.2060695E+000	0
6.041199847386451E+001	9.3462700E-003	-4.1557713E+000	0
6.041659847374831E+001	9.4035324E-003	-4.0997419E+000	0
6.042139847362705E+001	9.4035324E-003	-4.0462599E+000	0
6.042639847350074E+001	9.3844449E-003	-3.9870470E+000	0
6.043139847337443E+001	9.3080960E-003	-3.9342020E+000	0
6.043679847323801E+001	9.2699211E-003	-3.8813562E+000	0
6.044139847312181E+001	9.4035324E-003	-3.8304212E+000	0
6.044699847298034E+001	9.3271835E-003	-3.7775757E+000	0
6.045259847283887E+001	9.4035324E-003	-3.7253666E+000	0
6.045799847270246E+001	9.3653575E-003	-3.6731582E+000	0
6.046399847255088E+001	9.3080960E-003	-3.6203125E+000	0
6.046999847239931E+001	9.3080960E-003	-3.5674670E+000	0
6.050359847155050E+001	9.3462700E-003	-3.3187926E+000	0
6.051059847137367E+001	9.2890086E-003	-3.2687206E+000	0
6.051799847118673E+001	9.3653575E-003	-3.2180765E+000	0
6.052579847098968E+001	9.3080960E-003	-3.1671143E+000	0
6.053359847079264E+001	9.3653575E-003	-3.1162794E+000	0
6.054159847059054E+001	9.2699211E-003	-3.0659533E+000	0
6.055019847037329E+001	9.3653575E-003	-3.0148637E+000	0
6.055899847015098E+001	9.3462700E-003	-2.9644105E+000	0
6.056819846991857E+001	9.3271835E-003	-2.9142752E+000	0
6.057759846968111E+001	9.3080960E-003	-2.8637583E+000	0
6.058759846942849E+001	9.3271835E-003	-2.8127961E+000	0
6.059779846917081E+001	9.3844449E-003	-2.7618337E+000	0
6.060879846889293E+001	9.3462700E-003	-2.7109351E+000	0
6.061999846860999E+001	9.3844449E-003	-2.6604183E+000	0
6.063159846831695E+001	9.2699211E-003	-2.6097102E+000	0
6.064399846800370E+001	9.4035324E-003	-2.5583029E+000	0
6.065679846768035E+001	9.3844449E-003	-2.5081675E+000	0
6.066979846735194E+001	9.3462700E-003	-2.4576504E+000	0
6.068379846699827E+001	9.3462700E-003	-2.4073246E+000	0
6.069819846663449E+001	9.3080960E-003	-2.3572528E+000	0
6.071359846624546E+001	9.4035324E-003	-2.3071179E+000	0
6.072959846584126E+001	9.3462700E-003	-2.2564099E+000	0
6.074639846541686E+001	9.4035324E-003	-2.2062747E+000	0
6.076419846496719E+001	9.3462700E-003	-2.1553125E+000	0
6.078299846449227E+001	9.3653575E-003	-2.1049228E+000	0
6.080259846399713E+001	9.3653575E-003	-2.0546603E+000	0
6.082319846347673E+001	9.3080960E-003	-2.0042706E+000	0
6.084519846292096E+001	9.2699211E-003	-1.9541990E+000	0
6.086839846233488E+001	9.3653575E-003	-1.9041909E+000	0
6.089299846171343E+001	9.2890086E-003	-1.8538013E+000	0
6.091939846104651E+001	9.3844449E-003	-1.8036661E+000	0
6.094679846035433E+001	9.2890086E-003	-1.7536582E+000	0
6.097679845959647E+001	9.3462700E-003	-1.7032049E+000	0
6.100879845878808E+001	9.3653575E-003	-1.6528151E+000	0
6.104299845792411E+001	9.3653575E-003	-1.6026801E+000	0
6.107899845701468E+001	9.2508346E-003	-1.5526084E+000	0
6.111839845601935E+001	9.3080960E-003	-1.5023460E+000	0
6.116079845494824E+001	9.4226198E-003	-1.4517655E+000	0
6.120739845377102E+001	9.2890086E-003	-1.4017575E+000	0
6.125679845252307E+001	9.3080960E-003	-1.3516860E+000	0
6.131079845115892E+001	9.3080960E-003	-1.3014234E+000	0
6.137039844965329E+001	9.3844449E-003	-1.2504612E+000	0
6.143619844799105E+001	9.4798813E-003	-1.2004533E+000	0
6.150679844620754E+001	9.3844449E-003	-1.1503180E+000	0
6.158519844422699E+001	9.3462700E-003	-1.1002465E+000	0
6.167319844200392E+001	9.3844449E-003	-1.0502385E+000	0
6.177039843954844E+001	9.2699211E-003	-1.0002306E+000	0
6.187839843682013E+001	9.3653575E-003	-9.5009536E-001	0
6.200299843367247E+001	9.4798813E-003	-9.0008742E-001	0
6.214239843015093E+001	9.3653575E-003	-8.5007954E-001	0
6.230179842612415E+001	9.3462700E-003	-7.9988068E-001	0
6.248799842142034E+001	9.3271835E-003	-7.4987268E-001	0
6.270279841599404E+001	9.3080960E-003	-6.9980121E-001	0
6.295559840960777E+001	9.3653575E-003	-6.4979321E-001	0
6.326039840190788E+001	9.4035324E-003	-5.9940356E-001	0
6.363079839255079E+001	9.3080960E-003	-5.4895020E-001	0
6.408979838095547E+001	9.3653575E-003	-4.9868774E-001	0
6.468399836594472E+001	9.2508346E-003	-4.4848892E-001	0
6.505279835662805E+001	9.4226198E-003	-4.2519593E-001	0
6.505339835659834E+001	9.3653575E-003	-4.2480132E-001	0
6.595559833380685E+001	9.3844449E-003	-3.7472749E-001	0
6.723259830154711E+001	9.3271835E-003	-3.2471725E-001	0
6.915499825298321E+001	9.4607938E-003	-2.7467519E-001	0
7.236079817199789E+001	9.3080960E-003	-2.2460131E-001	0
7.825179802317871E+001	9.3844449E-003	-1.7459108E-001	0
8.825179777055746E+001	9.3844449E-003	-1.3235797E-001	0
9.825179751793621E+001	9.3080960E-003	-1.0917939E-001	0
1.082517972653150E+002	9.4035324E-003	-9.3695194E-002	0
1.182517970126937E+002	9.3080960E-003	-8.2513213E-002	0
1.282517967600725E+002	9.3844449E-003	-7.3896036E-002	0
1.382517965074512E+002	9.4226198E-003	-6.6678979E-002	0
1.482517962548300E+002	9.3462700E-003	-6.1243914E-002	0
1.582517960022087E+002	9.3844449E-003	-5.5980682E-002	0
1.682517957495875E+002	9.4226198E-003	-5.2079406E-002	0
1.782517954969662E+002	9.3653575E-003	-4.8012652E-002	0
1.882517952443450E+002	9.3271835E-003	-4.4677518E-002	0
1.982517949917237E+002	9.2699211E-003	-4.2010959E-002	0
2.082517947391025E+002	9.3271835E-003	-3.9542910E-002	0
2.182517944864812E+002	9.4417064E-003	-3.7364364E-002	0
2.282517942338600E+002	9.3844449E-003	-3.5394505E-002	0
2.382517939812387E+002	9.3271835E-003	-3.3597715E-002	0
2.482517937286175E+002	9.3462700E-003	-3.2158494E-002	0
2.582517934759962E+002	9.2699211E-003	-3.0588210E-002	0
2.682517932233750E+002	9.3271835E-003	-2.9295968E-002	0
2.782517929707537E+002	9.3653575E-003	-2.8141795E-002	0
2.882517927181325E+002	9.3653575E-003	-2.6993347E-002	0
2.982517924655112E+002	9.2699211E-003	-2.6043415E-002	0
3.082517922128900E+002	9.3080960E-003	-2.5025399E-002	0
3.182517919602687E+002	9.4226198E-003	-2.4151817E-002	0
3.282517917076475E+002	9.3271835E-003	-2.3178980E-002	0
3.382517914550263E+002	9.2890086E-003	-2.2467006E-002	0
3.482517912024050E+002	9.3653575E-003	-2.1756304E-002	0
3.582517909497838E+002	9.3080960E-003	-2.1100959E-002	0
3.682517906971625E+002	9.3653575E-003	-2.0473607E-002	0
3.782517904445413E+002	9.3653575E-003	-2.0007866E-002	0
3.834635903128801E+002	9.3271835E-003	-1.9616567E-002	0
3.834637903128751E+002	9.3653575E-003	-1.9840529E-002	0