time/s	Ewe/V	I/mA	error	
2.457521937917627E+002	-7.1400963E-002	-1.9442866E+000	0
2.457523937917576E+002	-1.3183339E-001	-1.9592501E+000	0
2.457525937917526E+002	-1.4820170E-001	-1.9593456E+000	0
2.457527937917475E+002	-1.5774347E-001	-1.9594858E+000	0
2.457529937917425E+002	-1.6537687E-001	-1.9594539E+000	0
2.457531937917374E+002	-1.7209427E-001	-1.9595239E+000	0
2.457533937917324E+002	-1.7829642E-001	-1.9595239E+000	0
2.457535937917273E+002	-1.8402147E-001	-1.9594984E+000	0
2.457537937917223E+002	-1.8940303E-001	-1.9594984E+000	0
2.457539937917172E+002	-1.9455557E-001	-1.9595239E+000	0
2.457541937917122E+002	-1.9944096E-001	-1.9595877E+000	0
2.457543937917071E+002	-2.0407824E-001	-1.9595622E+000	0
2.457545937917021E+002	-2.0867738E-001	-1.9595113E+000	0
2.457547937916970E+002	-2.1291392E-001	-1.9595113E+000	0
2.457549937916920E+002	-2.1711229E-001	-1.9594922E+000	0
2.457551937916869E+002	-2.2113891E-001	-1.9595367E+000	0
2.457553937916819E+002	-2.2516553E-001	-1.9595686E+000	0
2.457555937916768E+002	-2.2892499E-001	-1.9595748E+000	0
2.457557937916717E+002	-2.3262718E-001	-1.9595239E+000	0
2.457559937916667E+002	-2.3619580E-001	-1.9595686E+000	0
2.457561937916616E+002	-2.3968810E-001	-1.9595431E+000	0
2.457563937916566E+002	-2.4300863E-001	-1.9595686E+000	0
2.457565937916515E+002	-2.4623373E-001	-1.9595939E+000	0
2.457567937916465E+002	-2.4955428E-001	-1.9595686E+000	0
2.457569937916414E+002	-2.5268397E-001	-1.9595939E+000	0
2.457571937916364E+002	-2.5564191E-001	-1.9595557E+000	0
2.457573937916313E+002	-2.5873342E-001	-1.9595113E+000	0
2.457575937916263E+002	-2.6153871E-001	-1.9595304E+000	0
2.457577937916212E+002	-2.6436308E-001	-1.9595431E+000	0
2.457579937916162E+002	-2.6726377E-001	-1.9595622E+000	0
2.457581937916111E+002	-2.6989728E-001	-1.9595557E+000	0
2.457583937916061E+002	-2.7277890E-001	-1.9595686E+000	0
2.457585937916010E+002	-2.7525976E-001	-1.9595304E+000	0
2.457587937915960E+002	-2.7772152E-001	-1.9595239E+000	0
2.457589937915909E+002	-2.8037414E-001	-1.9594984E+000	0
2.457591937915859E+002	-2.8270233E-001	-1.9595686E+000	0
2.457593937915808E+002	-2.8508776E-001	-1.9595557E+000	0
2.457595937915758E+002	-2.8737780E-001	-1.9595686E+000	0
2.457597937915707E+002	-2.8962964E-001	-1.9595494E+000	0
2.457599937915656E+002	-2.9176700E-001	-1.9595176E+000	0
2.457601937915606E+002	-2.9411429E-001	-1.9595813E+000	0
2.457603937915555E+002	-2.9628980E-001	-1.9595304E+000	0
2.457605937915505E+002	-2.9821724E-001	-1.9595557E+000	0
2.457607937915454E+002	-3.0031642E-001	-1.9595622E+000	0
2.457609937915404E+002	-3.0237743E-001	-1.9595939E+000	0
2.457611937915353E+002	-3.0434304E-001	-1.9595494E+000	0
2.457613937915303E+002	-3.0649948E-001	-1.9595877E+000	0
2.457615937915252E+002	-3.0821699E-001	-1.9595877E+000	0
2.457617937915202E+002	-3.1012535E-001	-1.9595686E+000	0
2.457619937915151E+002	-3.1178561E-001	-1.9596003E+000	0
2.457621937915101E+002	-3.1369397E-001	-1.9595622E+000	0
2.457623937915050E+002	-3.1544966E-001	-1.9595048E+000	0
2.457625937915000E+002	-3.1714809E-001	-1.9596703E+000	0
2.457627937914949E+002	-3.1890377E-001	-1.9595813E+000	0
2.457629937914899E+002	-3.2048771E-001	-1.9595557E+000	0
2.457631937914848E+002	-3.2212889E-001	-1.9595748E+000	0
2.457633937914798E+002	-3.2382733E-001	-1.9596003E+000	0
2.457635937914747E+002	-3.2535401E-001	-1.9595813E+000	0
2.457637937914697E+002	-3.2689977E-001	-1.9595686E+000	0
2.457639937914646E+002	-3.2840735E-001	-1.9596258E+000	0
2.457641937914595E+002	-3.2995313E-001	-1.9595557E+000	0
2.457643937914545E+002	-3.3121264E-001	-1.9595813E+000	0
2.457645937914494E+002	-3.3277747E-001	-1.9595877E+000	0
2.457647937914444E+002	-3.3417058E-001	-1.9595686E+000	0
2.457649937914393E+002	-3.3564001E-001	-1.9595622E+000	0
2.457651937914343E+002	-3.3684227E-001	-1.9595939E+000	0
2.457653937914292E+002	-3.3834988E-001	-1.9596003E+000	0
2.457655937914242E+002	-3.3955213E-001	-1.9595939E+000	0
2.457657937914191E+002	-3.4088799E-001	-1.9596130E+000	0
2.457659937914141E+002	-3.4209025E-001	-1.9596068E+000	0
2.457661937914090E+002	-3.4340701E-001	-1.9595686E+000	0
2.457663937914040E+002	-3.4459019E-001	-1.9595748E+000	0
2.457665937913989E+002	-3.4577337E-001	-1.9595939E+000	0
2.457667937913939E+002	-3.4689930E-001	-1.9595622E+000	0
2.457669937913888E+002	-3.4808245E-001	-1.9596003E+000	0
2.457671937913838E+002	-3.4918931E-001	-1.9596068E+000	0
2.457673937913787E+002	-3.5042974E-001	-1.9595622E+000	0
2.457675937913737E+002	-3.5147932E-001	-1.9596068E+000	0
2.457677937913686E+002	-3.5249075E-001	-1.9595939E+000	0
2.457681937913585E+002	-3.5468537E-001	-1.9595622E+000	0
2.457685937913484E+002	-3.5668913E-001	-1.9595557E+000	0
2.457689937913383E+002	-3.5852116E-001	-1.9595748E+000	0
2.457693937913282E+002	-3.6050585E-001	-1.9595622E+000	0
2.457697937913181E+002	-3.6228061E-001	-1.9596003E+000	0
2.457701937913080E+002	-3.6401722E-001	-1.9596258E+000	0
2.457705937912979E+002	-3.6554387E-001	-1.9596386E+000	0
2.457709937912878E+002	-3.6726141E-001	-1.9595431E+000	0
2.457713937912777E+002	-3.6867359E-001	-1.9595494E+000	0
2.457717937912676E+002	-3.7021935E-001	-1.9596003E+000	0
2.457721937912575E+002	-3.7159336E-001	-1.9596068E+000	0
2.457725937912473E+002	-3.7291011E-001	-1.9596322E+000	0
2.457729937912372E+002	-3.7437955E-001	-1.9595877E+000	0
2.457733937912271E+002	-3.7550548E-001	-1.9596068E+000	0
2.457737937912170E+002	-3.7661234E-001	-1.9595939E+000	0
2.457741937912069E+002	-3.7783366E-001	-1.9596130E+000	0
2.457745937911968E+002	-3.7890235E-001	-1.9596068E+000	0
2.457751937911817E+002	-3.8054353E-001	-1.9595939E+000	0
2.457757937911665E+002	-3.8184121E-001	-1.9596003E+000	0
2.457763937911513E+002	-3.8310072E-001	-1.9596068E+000	0
2.457769937911362E+002	-3.8422665E-001	-1.9595622E+000	0
2.457775937911210E+002	-3.8531440E-001	-1.9595877E+000	0
2.457781937911059E+002	-3.8642126E-001	-1.9596258E+000	0
2.457789937910857E+002	-3.8760445E-001	-1.9596194E+000	0
2.457797937910655E+002	-3.8865402E-001	-1.9596194E+000	0
2.457807937910402E+002	-3.8974178E-001	-1.9595367E+000	0
2.457819937910099E+002	-3.9075321E-001	-1.9596194E+000	0
2.457833937909745E+002	-3.9187914E-001	-1.9595939E+000	0
2.457863937908987E+002	-3.9292872E-001	-1.9595622E+000	0
2.457939937907067E+002	-3.9189821E-001	-1.9595748E+000	0
2.457969937906310E+002	-3.9086771E-001	-1.9596003E+000	0
2.457987937905855E+002	-3.8979903E-001	-1.9596068E+000	0
2.458011937905248E+002	-3.8874945E-001	-1.9595557E+000	0
2.458031937904743E+002	-3.8766170E-001	-1.9595686E+000	0
2.458053937904187E+002	-3.8651666E-001	-1.9595748E+000	0
2.458073937903682E+002	-3.8544801E-001	-1.9596258E+000	0
2.458091937903228E+002	-3.8443658E-001	-1.9596322E+000	0
2.458107937902823E+002	-3.8342515E-001	-1.9596386E+000	0
2.458127937902318E+002	-3.8226104E-001	-1.9596386E+000	0
2.458149937901762E+002	-3.8119236E-001	-1.9595939E+000	0
2.458169937901257E+002	-3.8000920E-001	-1.9596003E+000	0
2.458189937900752E+002	-3.7899777E-001	-1.9595686E+000	0
2.458209937900247E+002	-3.7798634E-001	-1.9595748E+000	0
2.458227937899792E+002	-3.7695584E-001	-1.9595431E+000	0
2.458251937899186E+002	-3.7575358E-001	-1.9596258E+000	0
2.458271937898680E+002	-3.7472305E-001	-1.9594984E+000	0
2.458295937898074E+002	-3.7367347E-001	-1.9596068E+000	0
2.458317937897518E+002	-3.7264296E-001	-1.9595813E+000	0
2.458339937896963E+002	-3.7159336E-001	-1.9596068E+000	0
2.458361937896407E+002	-3.7058192E-001	-1.9595557E+000	0
2.458385937895800E+002	-3.6953235E-001	-1.9596194E+000	0
2.458411937895144E+002	-3.6850184E-001	-1.9595939E+000	0
2.458435937894537E+002	-3.6743316E-001	-1.9596003E+000	0
2.458459937893931E+002	-3.6638355E-001	-1.9596068E+000	0
2.458487937893224E+002	-3.6527672E-001	-1.9596068E+000	0
2.458517937892466E+002	-3.6422712E-001	-1.9595304E+000	0
2.458545937891759E+002	-3.6317754E-001	-1.9596258E+000	0
2.458573937891051E+002	-3.6208978E-001	-1.9596449E+000	0
2.458605937890243E+002	-3.6102110E-001	-1.9595939E+000	0
2.458637937889434E+002	-3.5997149E-001	-1.9596258E+000	0
2.458669937888626E+002	-3.5896006E-001	-1.9595939E+000	0
2.458699937887868E+002	-3.5792956E-001	-1.9595877E+000	0
2.458735937886959E+002	-3.5686088E-001	-1.9596703E+000	0
2.458773937885999E+002	-3.5583037E-001	-1.9596003E+000	0
2.458803937885241E+002	-3.5476169E-001	-1.9596003E+000	0
2.458849937884079E+002	-3.5369301E-001	-1.9595939E+000	0
2.458883937883220E+002	-3.5268161E-001	-1.9595557E+000	0
2.458929937882058E+002	-3.5161293E-001	-1.9596322E+000	0
2.458973937880946E+002	-3.5054424E-001	-1.9595686E+000	0
2.459017937879835E+002	-3.4943739E-001	-1.9595622E+000	0
2.459069937878521E+002	-3.4840688E-001	-1.9595686E+000	0
2.459121937877208E+002	-3.4728095E-001	-1.9596641E+000	0
2.459177937875793E+002	-3.4617412E-001	-1.9595557E+000	0
2.459235937874328E+002	-3.4516269E-001	-1.9595557E+000	0
2.459291937872913E+002	-3.4403676E-001	-1.9595304E+000	0
2.459357937871246E+002	-3.4302533E-001	-1.9595877E+000	0
2.459417937869730E+002	-3.4201390E-001	-1.9595877E+000	0
2.459487937867962E+002	-3.4092614E-001	-1.9596258E+000	0
2.459573937865789E+002	-3.3991471E-001	-1.9596068E+000	0
2.459641937864071E+002	-3.3890331E-001	-1.9595748E+000	0
2.459735937861697E+002	-3.3789188E-001	-1.9596130E+000	0
2.459821937859524E+002	-3.3686137E-001	-1.9596258E+000	0
2.459937937856594E+002	-3.3584994E-001	-1.9596130E+000	0
2.460049937853764E+002	-3.3481944E-001	-1.9595686E+000	0
2.460187937850278E+002	-3.3380800E-001	-1.9596003E+000	0
2.460351937846135E+002	-3.3279657E-001	-1.9595877E+000	0
2.460523937841790E+002	-3.3178514E-001	-1.9595557E+000	0
2.460741937836283E+002	-3.3073553E-001	-1.9595877E+000	0
2.461057937828300E+002	-3.2972413E-001	-1.9595622E+000	0
2.461451937818347E+002	-3.2867453E-001	-1.9596130E+000	0
2.462351937795611E+002	-3.2766309E-001	-1.9596003E+000	0
2.465205937723513E+002	-3.2867453E-001	-1.9596130E+000	0
2.466437937692390E+002	-3.2968596E-001	-1.9595939E+000	0
2.467439937667077E+002	-3.3071646E-001	-1.9595939E+000	0
2.468407937642623E+002	-3.3174697E-001	-1.9595877E+000	0
2.469337937619130E+002	-3.3275840E-001	-1.9596322E+000	0
2.470253937595990E+002	-3.3378890E-001	-1.9596068E+000	0
2.471087937574921E+002	-3.3480033E-001	-1.9596194E+000	0
2.472037937550922E+002	-3.3581176E-001	-1.9595877E+000	0
2.472935937528237E+002	-3.3688045E-001	-1.9595813E+000	0
2.473887937504187E+002	-3.3791095E-001	-1.9595813E+000	0
2.474773937481805E+002	-3.3892238E-001	-1.9596322E+000	0
2.475577937461494E+002	-3.3999106E-001	-1.9595431E+000	0
2.476447937439516E+002	-3.4100249E-001	-1.9595431E+000	0
2.477373937416123E+002	-3.4201390E-001	-1.9596068E+000	0
2.478239937394246E+002	-3.4306350E-001	-1.9595431E+000	0
2.479149937371258E+002	-3.4417033E-001	-1.9596003E+000	0
2.480109937347006E+002	-3.4520087E-001	-1.9596003E+000	0
2.481043937323411E+002	-3.4626952E-001	-1.9595813E+000	0
2.481923937301181E+002	-3.4728095E-001	-1.9596068E+000	0
2.482805937278899E+002	-3.4833056E-001	-1.9596003E+000	0
2.483725937255658E+002	-3.4938014E-001	-1.9596386E+000	0
2.484591937233781E+002	-3.5041067E-001	-1.9596068E+000	0
2.485489937211096E+002	-3.5144117E-001	-1.9595939E+000	0
2.486427937187400E+002	-3.5247168E-001	-1.9595813E+000	0
2.487301937165321E+002	-3.5350218E-001	-1.9595748E+000	0
2.488241937141574E+002	-3.5455179E-001	-1.9595748E+000	0
2.489091937120102E+002	-3.5556319E-001	-1.9596130E+000	0
2.490029937096406E+002	-3.5661280E-001	-1.9595939E+000	0
2.490973937072558E+002	-3.5762423E-001	-1.9596258E+000	0
2.491889937049418E+002	-3.5863566E-001	-1.9595939E+000	0
2.492737937027996E+002	-3.5964707E-001	-1.9595622E+000	0
2.493715937003290E+002	-3.6065850E-001	-1.9596068E+000	0
2.494627936980251E+002	-3.6166993E-001	-1.9596449E+000	0
2.495481936958677E+002	-3.6270043E-001	-1.9596003E+000	0
2.496467936933768E+002	-3.6373094E-001	-1.9595877E+000	0
2.497341936911689E+002	-3.6474237E-001	-1.9595939E+000	0
2.498295936887589E+002	-3.6575380E-001	-1.9595622E+000	0
2.499281936862681E+002	-3.6678430E-001	-1.9596130E+000	0
2.500253936838126E+002	-3.6783391E-001	-1.9596068E+000	0
2.501231936813419E+002	-3.6890259E-001	-1.9596130E+000	0
2.502201936788915E+002	-3.6993310E-001	-1.9596258E+000	0
2.503195936763805E+002	-3.7094453E-001	-1.9596386E+000	0
2.504045936742332E+002	-3.7195596E-001	-1.9595686E+000	0
2.505031936717423E+002	-3.7298647E-001	-1.9595686E+000	0
2.506069936691201E+002	-3.7401697E-001	-1.9595686E+000	0
2.507015936667303E+002	-3.7504748E-001	-1.9595239E+000	0
2.508041936641384E+002	-3.7607798E-001	-1.9596130E+000	0
2.509033936616324E+002	-3.7712759E-001	-1.9595813E+000	0
2.510041936590860E+002	-3.7815809E-001	-1.9596258E+000	0
2.511069936564891E+002	-3.7918860E-001	-1.9595813E+000	0
2.512133936538012E+002	-3.8021910E-001	-1.9596068E+000	0
2.513177936511638E+002	-3.8126871E-001	-1.9596130E+000	0
2.514195936485921E+002	-3.8229921E-001	-1.9596449E+000	0
2.515253936459194E+002	-3.8334882E-001	-1.9596003E+000	0
2.516289936433022E+002	-3.8436022E-001	-1.9596449E+000	0
2.517387936405285E+002	-3.8537166E-001	-1.9596003E+000	0
2.518463936378103E+002	-3.8638309E-001	-1.9596194E+000	0
2.519497936351981E+002	-3.8739452E-001	-1.9596258E+000	0
2.520555936325254E+002	-3.8840595E-001	-1.9595813E+000	0
2.521627936298173E+002	-3.8943645E-001	-1.9596130E+000	0
2.522745936269930E+002	-3.9050514E-001	-1.9596322E+000	0
2.523905936240626E+002	-3.9153564E-001	-1.9596258E+000	0
2.525083936210867E+002	-3.9256614E-001	-1.9596832E+000	0
2.526191936182877E+002	-3.9363483E-001	-1.9595939E+000	0
2.527395936152461E+002	-3.9464626E-001	-1.9595813E+000	0
2.528519936124067E+002	-3.9567676E-001	-1.9595748E+000	0
2.529765936092590E+002	-3.9668819E-001	-1.9595239E+000	0
2.530921936063387E+002	-3.9769962E-001	-1.9596003E+000	0
2.532065936034487E+002	-3.9873013E-001	-1.9596577E+000	0
2.533391936000990E+002	-3.9974156E-001	-1.9596322E+000	0
2.534521935972443E+002	-4.0075296E-001	-1.9596194E+000	0
2.535827935939451E+002	-4.0176439E-001	-1.9596003E+000	0
2.537067935908126E+002	-4.0279493E-001	-1.9596130E+000	0
2.538369935875235E+002	-4.0384451E-001	-1.9596322E+000	0
2.539671935842343E+002	-4.0485594E-001	-1.9596258E+000	0
2.541001935808745E+002	-4.0586737E-001	-1.9596068E+000	0
2.542323935775348E+002	-4.0687880E-001	-1.9595939E+000	0
2.543621935742558E+002	-4.0790930E-001	-1.9596258E+000	0
2.545039935706736E+002	-4.0892074E-001	-1.9596003E+000	0
2.546383935672784E+002	-4.0993214E-001	-1.9596194E+000	0
2.547857935635548E+002	-4.1096267E-001	-1.9596449E+000	0
2.549185935602000E+002	-4.1197407E-001	-1.9596386E+000	0
2.550759935562237E+002	-4.1298550E-001	-1.9595686E+000	0
2.552219935525354E+002	-4.1405419E-001	-1.9596258E+000	0
2.553851935484126E+002	-4.1506562E-001	-1.9596003E+000	0
2.555391935445223E+002	-4.1611519E-001	-1.9595813E+000	0
2.556967935405410E+002	-4.1714573E-001	-1.9595557E+000	0
2.558643935363070E+002	-4.1819531E-001	-1.9596068E+000	0
2.560331935320428E+002	-4.1922581E-001	-1.9595748E+000	0
2.562111935275461E+002	-4.2027542E-001	-1.9596068E+000	0
2.563797935232869E+002	-4.2128685E-001	-1.9596449E+000	0
2.565571935188054E+002	-4.2229828E-001	-1.9596322E+000	0
2.567439935140865E+002	-4.2330968E-001	-1.9595939E+000	0
2.569289935094130E+002	-4.2439747E-001	-1.9596322E+000	0
2.571297935043403E+002	-4.2540887E-001	-1.9595622E+000	0
2.573295934992930E+002	-4.2642030E-001	-1.9596068E+000	0
2.575163934945740E+002	-4.2745081E-001	-1.9595877E+000	0
2.577301934891730E+002	-4.2846224E-001	-1.9596386E+000	0
2.579635934832768E+002	-4.2949274E-001	-1.9596003E+000	0
2.581745934779465E+002	-4.3052328E-001	-1.9596258E+000	0
2.584105934719846E+002	-4.3153468E-001	-1.9595813E+000	0
2.586583934657247E+002	-4.3254611E-001	-1.9596512E+000	0
2.589007934596011E+002	-4.3355754E-001	-1.9595304E+000	0
2.591707934527803E+002	-4.3456897E-001	-1.9595431E+000	0
2.594461934458232E+002	-4.3558040E-001	-1.9595877E+000	0
2.597179934389569E+002	-4.3659183E-001	-1.9595686E+000	0
2.600463934306608E+002	-4.3764141E-001	-1.9595877E+000	0
2.603723934224254E+002	-4.3865284E-001	-1.9595939E+000	0
2.607431934130582E+002	-4.3966427E-001	-1.9595877E+000	0
2.611203934035293E+002	-4.4067571E-001	-1.9595686E+000	0
2.615307933931617E+002	-4.4170621E-001	-1.9596130E+000	0
2.620265933806368E+002	-4.4271764E-001	-1.9595748E+000	0
2.625787933666870E+002	-4.4372907E-001	-1.9595686E+000	0
2.632149933506153E+002	-4.4475958E-001	-1.9596003E+000	0
2.641217933277076E+002	-4.4577101E-001	-1.9596130E+000	0
2.689499932057370E+002	-4.4475958E-001	-1.9596512E+000	0
2.697497931855323E+002	-4.4374815E-001	-1.9596258E+000	0
2.704807931670657E+002	-4.4271764E-001	-1.9596322E+000	0
2.710881931517215E+002	-4.4170621E-001	-1.9596194E+000	0
2.716201931382820E+002	-4.4067571E-001	-1.9596386E+000	0
2.721663931244839E+002	-4.3964520E-001	-1.9596958E+000	0
2.726615931119741E+002	-4.3863377E-001	-1.9596130E+000	0
2.731339931000402E+002	-4.3758416E-001	-1.9596194E+000	0
2.735851930886420E+002	-4.3657273E-001	-1.9595686E+000	0
2.739883930784563E+002	-4.3556130E-001	-1.9595622E+000	0
2.743987930680887E+002	-4.3454990E-001	-1.9597149E+000	0
2.747959930580546E+002	-4.3351936E-001	-1.9596386E+000	0
2.751901930480963E+002	-4.3250796E-001	-1.9595877E+000	0
2.755543930388958E+002	-4.3149653E-001	-1.9595939E+000	0
2.759221930296044E+002	-4.3048510E-001	-1.9595748E+000	0
2.763173930196208E+002	-4.2947367E-001	-1.9596130E+000	0
2.766625930109003E+002	-4.2844316E-001	-1.9595939E+000	0
2.770289930016443E+002	-4.2743173E-001	-1.9596322E+000	0
2.773773929928429E+002	-4.2640123E-001	-1.9596386E+000	0
2.776943929848348E+002	-4.2537072E-001	-1.9596258E+000	0
2.780513929758163E+002	-4.2435929E-001	-1.9596322E+000	0
2.784103929667472E+002	-4.2330968E-001	-1.9595686E+000	0
2.787421929583652E+002	-4.2227918E-001	-1.9595877E+000	0
2.790565929504228E+002	-4.2126775E-001	-1.9596068E+000	0
2.793859929421014E+002	-4.2021817E-001	-1.9595939E+000	0
2.797361929332546E+002	-4.1920674E-001	-1.9596512E+000	0
2.800505929253122E+002	-4.1815713E-001	-1.9596068E+000	0
2.803887929167686E+002	-4.1712663E-001	-1.9595813E+000	0
2.806927929090889E+002	-4.1609612E-001	-1.9596194E+000	0
2.810213929007878E+002	-4.1502744E-001	-1.9596386E+000	0
2.813505928924715E+002	-4.1401601E-001	-1.9596449E+000	0
2.816643928845442E+002	-4.1296643E-001	-1.9595939E+000	0
2.819749928766978E+002	-4.1191682E-001	-1.9596068E+000	0
2.823097928682400E+002	-4.1088632E-001	-1.9596194E+000	0
2.826149928605300E+002	-4.0987489E-001	-1.9596068E+000	0
2.829129928530019E+002	-4.0886348E-001	-1.9596449E+000	0
2.832189928452717E+002	-4.0783295E-001	-1.9596003E+000	0
2.835197928376729E+002	-4.0682155E-001	-1.9596386E+000	0
2.838481928293768E+002	-4.0579101E-001	-1.9596322E+000	0
2.841459928218537E+002	-4.0476051E-001	-1.9595622E+000	0
2.844489928141993E+002	-4.0373001E-001	-1.9596194E+000	0
2.847699928060902E+002	-4.0269950E-001	-1.9596322E+000	0
2.850743927984004E+002	-4.0168807E-001	-1.9595686E+000	0
2.853659927910339E+002	-4.0067664E-001	-1.9596512E+000	0
2.856687927833846E+002	-3.9964613E-001	-1.9596386E+000	0
2.859739927756746E+002	-3.9863470E-001	-1.9596003E+000	0
2.862689927682222E+002	-3.9760420E-001	-1.9595304E+000	0
2.865911927600828E+002	-3.9657369E-001	-1.9596130E+000	0
2.868895927525446E+002	-3.9556226E-001	-1.9596322E+000	0
2.871855927450670E+002	-3.9453176E-001	-1.9595748E+000	0
2.874921927373216E+002	-3.9352033E-001	-1.9596068E+000	0
2.877987927295762E+002	-3.9247072E-001	-1.9596194E+000	0
2.880991927219875E+002	-3.9142114E-001	-1.9596130E+000	0
2.884055927142472E+002	-3.9039063E-001	-1.9596512E+000	0
2.887121927065018E+002	-3.8937920E-001	-1.9596130E+000	0
2.890167926988070E+002	-3.8836777E-001	-1.9595877E+000	0
2.893053926915163E+002	-3.8735634E-001	-1.9595939E+000	0
2.896059926839225E+002	-3.8634491E-001	-1.9595877E+000	0
2.899083926762833E+002	-3.8533351E-001	-1.9595939E+000	0
2.902037926688208E+002	-3.8428390E-001	-1.9596003E+000	0
2.905115926610451E+002	-3.8321522E-001	-1.9595748E+000	0
2.908297926530067E+002	-3.8220379E-001	-1.9595686E+000	0
2.911119926458778E+002	-3.8119236E-001	-1.9596068E+000	0
2.914149926382233E+002	-3.8018095E-001	-1.9595494E+000	0
2.917117926307255E+002	-3.7915042E-001	-1.9595877E+000	0
2.920001926234399E+002	-3.7813902E-001	-1.9595939E+000	0
2.923015926158259E+002	-3.7712759E-001	-1.9596577E+000	0
2.925885926085757E+002	-3.7611616E-001	-1.9596258E+000	0
2.928977926007647E+002	-3.7510473E-001	-1.9596068E+000	0
2.931673925939540E+002	-3.7407422E-001	-1.9596386E+000	0
2.934655925864208E+002	-3.7306279E-001	-1.9596130E+000	0
2.937489925792615E+002	-3.7205136E-001	-1.9595939E+000	0
2.940059925727692E+002	-3.7103993E-001	-1.9596194E+000	0
2.943173925649025E+002	-3.7002853E-001	-1.9595939E+000	0
2.945873925580818E+002	-3.6901709E-001	-1.9596258E+000	0
2.948577925512509E+002	-3.6798659E-001	-1.9596577E+000	0
2.951399925441219E+002	-3.6687973E-001	-1.9596386E+000	0
2.954313925367605E+002	-3.6586830E-001	-1.9596386E+000	0
2.956979925300257E+002	-3.6485687E-001	-1.9596322E+000	0
2.959529925235838E+002	-3.6384544E-001	-1.9596512E+000	0
2.962227925167681E+002	-3.6281493E-001	-1.9596130E+000	0
2.964695925105334E+002	-3.6180350E-001	-1.9596194E+000	0
2.967249925040815E+002	-3.6077300E-001	-1.9596068E+000	0
2.969775924977002E+002	-3.5976157E-001	-1.9596130E+000	0
2.972203924915666E+002	-3.5873106E-001	-1.9596194E+000	0
2.974525924857007E+002	-3.5771963E-001	-1.9595748E+000	0
2.975549924831139E+002	-3.5617387E-001	-1.9597149E+000	0
2.975551924831088E+002	-3.4710920E-001	-1.9596577E+000	0
2.975553924831038E+002	-3.4586877E-001	-1.9595686E+000	0
2.975565924830735E+002	-3.4480011E-001	-1.9596130E+000	0
2.975587924830179E+002	-3.4378868E-001	-1.9596194E+000	0
2.975647924828663E+002	-3.4262457E-001	-1.9596194E+000	0
2.975783924825228E+002	-3.4159407E-001	-1.9596322E+000	0
2.975937924821337E+002	-3.3978114E-001	-1.9596068E+000	0
2.976145924816083E+002	-3.4079257E-001	-1.9596258E+000	0
2.976163924815628E+002	-3.4182307E-001	-1.9596512E+000	0
2.976181924815173E+002	-3.4296808E-001	-1.9596194E+000	0
2.976203924814617E+002	-3.4411308E-001	-1.9596449E+000	0
2.976217924814264E+002	-3.4571612E-001	-1.9595557E+000	0
2.976233924813860E+002	-3.4676570E-001	-1.9596130E+000	0
2.976247924813506E+002	-3.4792981E-001	-1.9595813E+000	0
2.976257924813253E+002	-3.4901756E-001	-1.9595939E+000	0
2.976261924813152E+002	-3.5048699E-001	-1.9596068E+000	0
2.976277924812748E+002	-3.5168925E-001	-1.9596130E+000	0
2.976311924811889E+002	-3.5283425E-001	-1.9596003E+000	0
2.976373924810323E+002	-3.5405561E-001	-1.9596449E+000	0
2.976437924808706E+002	-3.5506704E-001	-1.9595939E+000	0
2.976489924807393E+002	-3.4997174E-001	-1.9597213E+000	0
2.976491924807342E+002	-3.4632677E-001	-1.9595939E+000	0
2.976497924807190E+002	-3.4525812E-001	-1.9596832E+000	0
2.976525924806483E+002	-3.4422758E-001	-1.9596577E+000	0
2.976591924804816E+002	-3.4319708E-001	-1.9596832E+000	0
2.976737924801128E+002	-3.4210932E-001	-1.9596386E+000	0
2.976739924801077E+002	-3.4014371E-001	-1.9596130E+000	0
2.976769924800319E+002	-3.3909413E-001	-1.9596577E+000	0
2.976825924798904E+002	-3.4014371E-001	-1.9595494E+000	0
2.976843924798450E+002	-3.4123150E-001	-1.9596322E+000	0
2.976849924798298E+002	-3.4451386E-001	-1.9596258E+000	0
2.976851924798248E+002	-3.4605962E-001	-1.9596130E+000	0
2.976867924797843E+002	-3.4212840E-001	-1.9596641E+000	0
2.976881924797490E+002	-3.4105974E-001	-1.9596258E+000	0
2.976891924797237E+002	-3.3974296E-001	-1.9596449E+000	0
2.976893924797187E+002	-3.3821627E-001	-1.9596512E+000	0
2.977037924793549E+002	-3.3922771E-001	-1.9596130E+000	0
2.977071924792690E+002	-3.4039181E-001	-1.9595877E+000	0
2.977085924792336E+002	-3.4140325E-001	-1.9596577E+000	0
2.977109924791730E+002	-3.4247190E-001	-1.9596258E+000	0
2.977123924791376E+002	-3.4354058E-001	-1.9596068E+000	0
2.977133924791124E+002	-3.4476194E-001	-1.9596322E+000	0
2.977177924790012E+002	-3.4065899E-001	-1.9596386E+000	0
2.977183924789861E+002	-3.3962846E-001	-1.9596130E+000	0
2.977225924788800E+002	-3.4075439E-001	-1.9596068E+000	0
2.977253924788092E+002	-3.4195665E-001	-1.9595622E+000	0
2.977265924787789E+002	-3.4352151E-001	-1.9596003E+000	0
2.977275924787537E+002	-3.4459019E-001	-1.9595748E+000	0
2.977317924786475E+002	-3.4560162E-001	-1.9596003E+000	0
2.977345924785768E+002	-3.4665120E-001	-1.9596194E+000	0
2.977359924785414E+002	-3.4405583E-001	-1.9596767E+000	0
2.977385924784758E+002	-3.4302533E-001	-1.9596512E+000	0
2.977443924783292E+002	-3.4403676E-001	-1.9596003E+000	0
2.977485924782231E+002	-3.4506726E-001	-1.9595939E+000	0
2.977515924781474E+002	-3.4617412E-001	-1.9596386E+000	0
2.977547924780665E+002	-3.4724280E-001	-1.9595813E+000	0
2.977585924779705E+002	-3.4825420E-001	-1.9596003E+000	0
2.977611924779048E+002	-3.4930381E-001	-1.9596003E+000	0
2.977641924778291E+002	-3.5033432E-001	-1.9596767E+000	0
2.977681924777280E+002	-3.5134575E-001	-1.9596003E+000	0
2.977701924776775E+002	-3.4825420E-001	-1.9597085E+000	0
2.977703924776724E+002	-3.4300625E-001	-1.9595622E+000	0
2.977709924776573E+002	-3.4159407E-001	-1.9596130E+000	0
2.977723924776219E+002	-3.4058264E-001	-1.9596322E+000	0
2.977753924775461E+002	-3.3922771E-001	-1.9596068E+000	0
2.977793924774451E+002	-3.3813995E-001	-1.9595877E+000	0
2.977931924770965E+002	-3.3180422E-001	-1.9596258E+000	0
2.977933924770914E+002	-3.3065921E-001	-1.9596641E+000	0
2.977937924770813E+002	-3.2951421E-001	-1.9596258E+000	0
2.978055924767832E+002	-3.3062103E-001	-1.9595877E+000	0
2.978085924767074E+002	-3.2943788E-001	-1.9595939E+000	0
2.978161924765154E+002	-3.2613641E-001	-1.9596832E+000	0
2.978163924765104E+002	-3.2413265E-001	-1.9596130E+000	0
2.978187924764497E+002	-3.2298765E-001	-1.9596068E+000	0
2.978347924760456E+002	-3.2403722E-001	-1.9596130E+000	0
2.978415924758738E+002	-3.2237697E-001	-1.9596003E+000	0
2.978505924756464E+002	-3.2352197E-001	-1.9596194E+000	0
2.978515924756211E+002	-3.1974345E-001	-1.9596130E+000	0
2.978521924756060E+002	-3.1863660E-001	-1.9596386E+000	0
2.978569924754847E+002	-3.1972435E-001	-1.9596130E+000	0
2.978597924754140E+002	-3.2090753E-001	-1.9596577E+000	0
2.978627924753382E+002	-3.2199529E-001	-1.9595748E+000	0
2.978643924752978E+002	-3.2025871E-001	-1.9597023E+000	0
2.978653924752725E+002	-3.1688091E-001	-1.9597023E+000	0
2.978655924752675E+002	-3.1325504E-001	-1.9596194E+000	0
2.978665924752422E+002	-3.1209096E-001	-1.9596258E+000	0
2.978769924749795E+002	-3.1043068E-001	-1.9596894E+000	0
2.978995924744086E+002	-3.1184286E-001	-1.9596386E+000	0
2.979047924742772E+002	-3.0913299E-001	-1.9596003E+000	0
2.979165924739791E+002	-3.1031618E-001	-1.9595686E+000	0
2.979207924738730E+002	-3.1148028E-001	-1.9595939E+000	0
2.979247924737720E+002	-3.1275886E-001	-1.9595813E+000	0
2.979265924737265E+002	-3.1380847E-001	-1.9595748E+000	0
2.979307924736204E+002	-3.1491530E-001	-1.9596449E+000	0
2.979329924735648E+002	-3.1594583E-001	-1.9596130E+000	0
2.979357924734941E+002	-3.1712899E-001	-1.9595813E+000	0
2.979439924732869E+002	-3.1359854E-001	-1.9596258E+000	0
2.979451924732566E+002	-3.1256804E-001	-1.9596577E+000	0
2.979567924729636E+002	-3.1357947E-001	-1.9595877E+000	0
2.979609924728575E+002	-3.1468630E-001	-1.9596386E+000	0
2.979641924727766E+002	-3.1581223E-001	-1.9596194E+000	0
2.979669924727059E+002	-3.1688091E-001	-1.9596130E+000	0
2.979687924726604E+002	-3.1791142E-001	-1.9595748E+000	0
2.979711924725998E+002	-3.1898010E-001	-1.9595813E+000	0
2.979751924724987E+002	-3.2001060E-001	-1.9595877E+000	0
2.979795924723876E+002	-3.2102203E-001	-1.9595877E+000	0
2.979815924723371E+002	-3.1894192E-001	-1.9596386E+000	0
2.979835924722865E+002	-3.1712899E-001	-1.9595877E+000	0
2.979875924721855E+002	-3.1585041E-001	-1.9596641E+000	0
2.979877924721804E+002	-3.1445730E-001	-1.9596258E+000	0
2.980007924718520E+002	-3.1548783E-001	-1.9596003E+000	0
2.980027924718015E+002	-3.1661373E-001	-1.9596958E+000	0
2.980043924717611E+002	-3.1800684E-001	-1.9596003E+000	0
2.980055924717308E+002	-3.1972435E-001	-1.9596449E+000	0
2.980061924717156E+002	-3.2106021E-001	-1.9595877E+000	0
2.980071924716904E+002	-3.2235789E-001	-1.9596386E+000	0
2.980083924716600E+002	-3.2130828E-001	-1.9596512E+000	0
2.980085924716550E+002	-3.1985795E-001	-1.9596703E+000	0
2.980115924715792E+002	-3.2100296E-001	-1.9596449E+000	0
2.980125924715539E+002	-3.2205254E-001	-1.9596068E+000	0
2.980137924715236E+002	-3.1993428E-001	-1.9596258E+000	0
2.980249924712407E+002	-3.1875110E-001	-1.9596068E+000	0
2.980269924711902E+002	-3.1762516E-001	-1.9596003E+000	0
2.980317924710689E+002	-3.1863660E-001	-1.9596449E+000	0
2.980355924709729E+002	-3.1964803E-001	-1.9596832E+000	0
2.980375924709224E+002	-3.1856027E-001	-1.9596194E+000	0
2.980397924708668E+002	-3.1361765E-001	-1.9596194E+000	0
2.980413924708264E+002	-3.1256804E-001	-1.9596068E+000	0
2.980533924705232E+002	-3.1359854E-001	-1.9595748E+000	0
2.980599924703565E+002	-3.1468630E-001	-1.9596194E+000	0
2.980649924702302E+002	-3.1575498E-001	-1.9596449E+000	0
2.980697924701090E+002	-3.1676641E-001	-1.9596512E+000	0
2.980783924698917E+002	-3.1787327E-001	-1.9596003E+000	0
2.980839924697502E+002	-3.1598398E-001	-1.9596068E+000	0
2.980877924696542E+002	-3.0951467E-001	-1.9596512E+000	0
2.980883924696391E+002	-3.0844599E-001	-1.9596194E+000	0
2.980929924695229E+002	-3.0707198E-001	-1.9596194E+000	0
2.981047924692248E+002	-3.0401862E-001	-1.9596130E+000	0
2.981097924690985E+002	-3.0503005E-001	-1.9596130E+000	0
2.981143924689823E+002	-3.0606055E-001	-1.9596068E+000	0
2.981163924689317E+002	-3.0707198E-001	-1.9596832E+000	0
2.981185924688762E+002	-3.0815974E-001	-1.9596003E+000	0
2.981205924688256E+002	-3.0926660E-001	-1.9596130E+000	0
2.981239924687397E+002	-3.1033528E-001	-1.9595622E+000	0
2.981269924686640E+002	-3.1138486E-001	-1.9596194E+000	0
2.981309924685629E+002	-3.1241536E-001	-1.9595239E+000	0
2.981321924685326E+002	-3.1140393E-001	-1.9596894E+000	0
2.981323924685275E+002	-3.0873224E-001	-1.9596386E+000	0
2.981357924684417E+002	-3.0772084E-001	-1.9595877E+000	0
2.981415924682951E+002	-3.0644223E-001	-1.9596258E+000	0
2.981439924682345E+002	-3.0514455E-001	-1.9596003E+000	0
2.981493924680981E+002	-3.0266368E-001	-1.9596641E+000	0
2.981495924680930E+002	-3.0037367E-001	-1.9596512E+000	0
2.981531924680021E+002	-2.9892331E-001	-1.9596577E+000	0
2.981533924679970E+002	-2.9766381E-001	-1.9596130E+000	0
2.981631924677495E+002	-2.9873249E-001	-1.9596194E+000	0
2.981659924676787E+002	-2.9982024E-001	-1.9596767E+000	0
2.981671924676484E+002	-3.0085075E-001	-1.9596194E+000	0
2.981707924675575E+002	-3.0205303E-001	-1.9596512E+000	0
2.981725924675120E+002	-3.0315986E-001	-1.9596258E+000	0
2.981737924674817E+002	-3.0422854E-001	-1.9596194E+000	0
2.981745924674615E+002	-3.0285454E-001	-1.9596767E+000	0
2.981795924673352E+002	-3.0401862E-001	-1.9596258E+000	0
2.981797924673301E+002	-3.0508730E-001	-1.9596068E+000	0
2.981799924673251E+002	-3.0636591E-001	-1.9596322E+000	0
2.981805924673099E+002	-3.0440030E-001	-1.9596386E+000	0
2.981823924672644E+002	-3.0544987E-001	-1.9596449E+000	0
2.981837924672291E+002	-3.0655673E-001	-1.9596194E+000	0
2.981865924671583E+002	-3.0758724E-001	-1.9596068E+000	0
2.981899924670724E+002	-3.0869409E-001	-1.9596322E+000	0
2.981915924670320E+002	-3.0995360E-001	-1.9596003E+000	0
2.981923924670118E+002	-3.1142303E-001	-1.9596068E+000	0
2.981931924669916E+002	-3.1254897E-001	-1.9595686E+000	0
2.981947924669512E+002	-3.1359854E-001	-1.9596322E+000	0
2.981951924669411E+002	-3.1138486E-001	-1.9595939E+000	0
2.981953924669360E+002	-3.0989635E-001	-1.9596577E+000	0
2.982013924667845E+002	-3.1092685E-001	-1.9596449E+000	0
2.982043924667087E+002	-3.1195736E-001	-1.9596258E+000	0
2.982065924666531E+002	-3.1296879E-001	-1.9595431E+000	0
2.982111924665369E+002	-3.1399930E-001	-1.9596194E+000	0
2.982133924664813E+002	-3.1504890E-001	-1.9596386E+000	0
2.982143924664560E+002	-3.1239629E-001	-1.9596641E+000	0
2.982145924664510E+002	-3.1083143E-001	-1.9596130E+000	0
2.982207924662944E+002	-3.1190011E-001	-1.9596068E+000	0
2.982247924661933E+002	-3.1291154E-001	-1.9595813E+000	0
2.982275924661226E+002	-3.1411380E-001	-1.9595877E+000	0
2.982297924660670E+002	-3.1516340E-001	-1.9596258E+000	0
2.982381924658548E+002	-3.1239629E-001	-1.9596068E+000	0
2.982387924658397E+002	-3.1136578E-001	-1.9596068E+000	0
2.982417924657639E+002	-3.1016353E-001	-1.9595813E+000	0
2.982481924656022E+002	-3.0846509E-001	-1.9596512E+000	0
2.982483924655971E+002	-3.0711016E-001	-1.9595748E+000	0
2.982627924652334E+002	-3.0829334E-001	-1.9595813E+000	0
2.982635924652132E+002	-3.0531630E-001	-1.9597596E+000	0
2.982637924652081E+002	-2.9745388E-001	-1.9597913E+000	0
2.982639924652030E+002	-2.9569820E-001	-1.9595939E+000	0
2.982655924651626E+002	-2.9447687E-001	-1.9596130E+000	0
2.982683924650919E+002	-2.9344636E-001	-1.9596894E+000	0
2.982687924650818E+002	-2.8877088E-001	-1.9597404E+000	0
2.982689924650767E+002	-2.8434351E-001	-1.9596130E+000	0
2.982695924650616E+002	-2.8327483E-001	-1.9596003E+000	0
2.982711924650212E+002	-2.8199625E-001	-1.9595877E+000	0
2.982741924649454E+002	-2.8088939E-001	-1.9596003E+000	0
2.982749924649252E+002	-2.7896196E-001	-1.9596577E+000	0
2.982761924648948E+002	-2.7795053E-001	-1.9595877E+000	0
2.982857924646523E+002	-2.7407658E-001	-1.9596703E+000	0
2.982859924646473E+002	-2.7232090E-001	-1.9595939E+000	0
2.982899924645462E+002	-2.6957288E-001	-1.9596449E+000	0
2.982901924645412E+002	-2.6692027E-001	-1.9596003E+000	0
2.982923924644856E+002	-2.6567984E-001	-1.9595686E+000	0
2.982937924644502E+002	-2.6192039E-001	-1.9596512E+000	0
2.982939924644452E+002	-2.5959221E-001	-1.9596258E+000	0
2.982945924644300E+002	-2.5852352E-001	-1.9595176E+000	0
2.982967924643744E+002	-2.5745484E-001	-1.9595877E+000	0
2.982993924643088E+002	-2.5623348E-001	-1.9596386E+000	0
2.983039924641926E+002	-2.5501215E-001	-1.9596194E+000	0
2.983111924640107E+002	-2.5606173E-001	-1.9596130E+000	0
2.983117924639955E+002	-2.5499305E-001	-1.9595813E+000	0
2.983137924639450E+002	-2.5604266E-001	-1.9595939E+000	0
2.983139924639399E+002	-2.5768384E-001	-1.9596641E+000	0
2.983149924639147E+002	-2.5663424E-001	-1.9596068E+000	0
2.983211924637581E+002	-2.5770292E-001	-1.9596258E+000	0
2.983217924637429E+002	-2.5503123E-001	-1.9596703E+000	0
2.983225924637227E+002	-2.5394347E-001	-1.9596449E+000	0
2.983307924635155E+002	-2.5495490E-001	-1.9596641E+000	0
2.983329924634600E+002	-2.5602359E-001	-1.9595877E+000	0
2.983357924633892E+002	-2.5491673E-001	-1.9596577E+000	0
2.983395924632932E+002	-2.5132903E-001	-1.9597467E+000	0
2.983397924632882E+002	-2.4932528E-001	-1.9596194E+000	0
2.983449924631568E+002	-2.4793217E-001	-1.9596449E+000	0
2.983517924629850E+002	-2.4907719E-001	-1.9596068E+000	0
2.983543924629194E+002	-2.4379104E-001	-1.9596322E+000	0
2.983559924628789E+002	-2.4239795E-001	-1.9596130E+000	0
2.983595924627880E+002	-2.4117661E-001	-1.9595939E+000	0
2.983647924626566E+002	-2.4222620E-001	-1.9596322E+000	0
2.983669924626010E+002	-2.4335213E-001	-1.9596322E+000	0
2.983671924625960E+002	-2.4115752E-001	-1.9596194E+000	0
2.983675924625859E+002	-2.4008885E-001	-1.9596068E+000	0
2.983741924624192E+002	-2.4113844E-001	-1.9595939E+000	0
2.983753924623888E+002	-2.3844767E-001	-1.9596449E+000	0
2.983815924622322E+002	-2.3720723E-001	-1.9596194E+000	0
2.983857924621261E+002	-2.3860033E-001	-1.9595686E+000	0
2.983885924620554E+002	-2.3968810E-001	-1.9595877E+000	0
2.983909924619948E+002	-2.4071860E-001	-1.9596258E+000	0
2.983961924618634E+002	-2.4180636E-001	-1.9595304E+000	0
2.983965924618533E+002	-2.4329488E-001	-1.9596003E+000	0
2.983971924618381E+002	-2.4482156E-001	-1.9596641E+000	0
2.983985924618028E+002	-2.4316129E-001	-1.9596130E+000	0
2.984017924617219E+002	-2.4188270E-001	-1.9595939E+000	0
2.984025924617017E+002	-2.3825683E-001	-1.9595877E+000	0
2.984039924616663E+002	-2.3537521E-001	-1.9596767E+000	0
2.984067924615956E+002	-2.3381037E-001	-1.9596322E+000	0
2.984137924614188E+002	-2.3485996E-001	-1.9595748E+000	0
2.984169924613379E+002	-2.3587139E-001	-1.9596130E+000	0
2.984189924612874E+002	-2.3690189E-001	-1.9596322E+000	0
2.984207924612419E+002	-2.3797058E-001	-1.9596194E+000	0
2.984231924611813E+002	-2.3911558E-001	-1.9596068E+000	0
2.984251924611308E+002	-2.3707364E-001	-1.9596512E+000	0
2.984287924610398E+002	-2.3812324E-001	-1.9596449E+000	0
2.984299924610095E+002	-2.3917283E-001	-1.9596512E+000	0
2.984313924609742E+002	-2.4027967E-001	-1.9596386E+000	0
2.984317924609641E+002	-2.3896292E-001	-1.9596258E+000	0
2.984319924609590E+002	-2.3768432E-001	-1.9596512E+000	0
2.984343924608984E+002	-2.3875301E-001	-1.9595494E+000	0
2.984371924608276E+002	-2.3713090E-001	-1.9596258E+000	0
2.984385924607923E+002	-2.3547064E-001	-1.9596003E+000	0
2.984429924606811E+002	-2.3671107E-001	-1.9596258E+000	0
2.984445924606407E+002	-2.3781791E-001	-1.9596068E+000	0
2.984499924605043E+002	-2.3882933E-001	-1.9595939E+000	0
2.984521924604487E+002	-2.3991710E-001	-1.9596194E+000	0
2.984543924603931E+002	-2.4108119E-001	-1.9595686E+000	0
2.984549924603780E+002	-2.3890567E-001	-1.9596258E+000	0
2.984631924601708E+002	-2.3997435E-001	-1.9596703E+000	0
2.984655924601102E+002	-2.4104302E-001	-1.9595304E+000	0
2.984661924600950E+002	-2.3749349E-001	-1.9596003E+000	0
2.984671924600698E+002	-2.3636755E-001	-1.9596068E+000	0
2.984673924600647E+002	-2.3405845E-001	-1.9596512E+000	0
2.984735924599081E+002	-2.3510805E-001	-1.9596003E+000	0
2.984741924598929E+002	-2.3297070E-001	-1.9596258E+000	0
2.984793924597616E+002	-2.2980283E-001	-1.9596258E+000	0
2.984827924596757E+002	-2.2867690E-001	-1.9596449E+000	0
2.984841924596403E+002	-2.2468844E-001	-1.9596258E+000	0
2.984847924596252E+002	-2.2365794E-001	-1.9596130E+000	0
2.984853924596100E+002	-2.2033741E-001	-1.9596258E+000	0
2.984875924595544E+002	-2.1930690E-001	-1.9596194E+000	0
2.985013924592058E+002	-2.1820004E-001	-1.9596068E+000	0
2.985105924589734E+002	-2.1923056E-001	-1.9596194E+000	0
2.985107924589684E+002	-2.1772297E-001	-1.9596258E+000	0
2.985155924588471E+002	-2.1873438E-001	-1.9596258E+000	0
2.985171924588067E+002	-2.1749397E-001	-1.9596894E+000	0
2.985177924587915E+002	-2.1634895E-001	-1.9596386E+000	0
2.985217924586905E+002	-2.1493676E-001	-1.9596258E+000	0
2.985267924585642E+002	-2.1598636E-001	-1.9596767E+000	0
2.985289924585086E+002	-2.1386810E-001	-1.9596386E+000	0
2.985357924583368E+002	-2.1505126E-001	-1.9595813E+000	0
2.985367924583115E+002	-2.1236049E-001	-1.9596258E+000	0
2.985437924581347E+002	-2.1092923E-001	-1.9596130E+000	0
2.985489924580033E+002	-2.1207424E-001	-1.9596894E+000	0
2.985503924579680E+002	-2.0991780E-001	-1.9595939E+000	0
2.985557924578316E+002	-2.1096739E-001	-1.9595939E+000	0
2.985571924577962E+002	-2.0743695E-001	-1.9597213E+000	0
2.985573924577911E+002	-2.0619652E-001	-1.9595877E+000	0
2.985583924577659E+002	-2.0466983E-001	-1.9595813E+000	0
2.985597924577305E+002	-2.0150197E-001	-1.9596894E+000	0
2.985601924577204E+002	-2.0049055E-001	-1.9596512E+000	0
2.985631924576446E+002	-1.9940278E-001	-1.9595686E+000	0
2.985721924574173E+002	-2.0047146E-001	-1.9596194E+000	0
2.985745924573566E+002	-1.9942187E-001	-1.9597276E+000	0
2.985747924573516E+002	-1.9730359E-001	-1.9596130E+000	0
2.985815924571798E+002	-1.9486091E-001	-1.9596194E+000	0
2.985843924571091E+002	-1.9247547E-001	-1.9596958E+000	0
2.986019924566644E+002	-1.9138771E-001	-1.9596767E+000	0
2.986021924566594E+002	-1.8932669E-001	-1.9595939E+000	0
2.986045924565988E+002	-1.8766642E-001	-1.9596194E+000	0
2.986047924565937E+002	-1.8640691E-001	-1.9595748E+000	0
2.986093924564775E+002	-1.8396422E-001	-1.9596068E+000	0
2.986095924564725E+002	-1.8278104E-001	-1.9596194E+000	0
2.986175924562704E+002	-1.8175054E-001	-1.9596386E+000	0
2.986185924562451E+002	-1.8010935E-001	-1.9596703E+000	0
2.986467924555327E+002	-1.7905976E-001	-1.9596003E+000	0
2.986531924553710E+002	-1.7780024E-001	-1.9596577E+000	0
2.986535924553609E+002	-1.7627355E-001	-1.9596703E+000	0
2.986543924553407E+002	-1.7447971E-001	-1.9596258E+000	0
2.986815924546536E+002	-1.7558655E-001	-1.9596641E+000	0
2.986869924545172E+002	-1.7669339E-001	-1.9596003E+000	0
2.986877924544970E+002	-1.7491864E-001	-1.9595939E+000	0
2.986947924543201E+002	-1.7596823E-001	-1.9596577E+000	0
2.986969924542645E+002	-1.7715140E-001	-1.9596577E+000	0
2.986987924542191E+002	-1.7823917E-001	-1.9596068E+000	0
2.987003924541787E+002	-1.8054827E-001	-1.9596322E+000	0
2.987115924538957E+002	-1.8161695E-001	-1.9595813E+000	0
2.987141924538300E+002	-1.8264745E-001	-1.9596449E+000	0
2.987163924537745E+002	-1.8155970E-001	-1.9596194E+000	0
2.987173924537492E+002	-1.8018568E-001	-1.9596003E+000	0
2.987181924537290E+002	-1.7894526E-001	-1.9596386E+000	0
2.987241924535774E+002	-1.7789567E-001	-1.9595494E+000	0
2.987243924535724E+002	-1.7673157E-001	-1.9595748E+000	0
2.987253924535471E+002	-1.7570105E-001	-1.9596386E+000	0
2.987333924533450E+002	-1.7377362E-001	-1.9596641E+000	0
2.987459924530267E+002	-1.7226602E-001	-1.9596449E+000	0
2.987467924530065E+002	-1.7112102E-001	-1.9596130E+000	0
2.987491924529459E+002	-1.6900274E-001	-1.9596130E+000	0
2.987493924529408E+002	-1.6781956E-001	-1.9596322E+000	0
2.987521924528701E+002	-1.6888824E-001	-1.9596194E+000	0
2.987533924528398E+002	-1.6774322E-001	-1.9596832E+000	0
2.987567924527539E+002	-1.6650280E-001	-1.9596449E+000	0
2.987575924527337E+002	-1.6499521E-001	-1.9596577E+000	0
2.987733924523345E+002	-1.6600662E-001	-1.9596322E+000	0
2.987769924522436E+002	-1.6467078E-001	-1.9596068E+000	0
2.987783924522082E+002	-1.6364028E-001	-1.9596386E+000	0
2.987801924521627E+002	-1.6228534E-001	-1.9596767E+000	0
2.987813924521324E+002	-1.6117850E-001	-1.9596068E+000	0
2.987961924517585E+002	-1.6010982E-001	-1.9595877E+000	0
2.988019924516120E+002	-1.5904115E-001	-1.9596386E+000	0
2.988065924514958E+002	-1.5764804E-001	-1.9595877E+000	0
2.988075924514706E+002	-1.5604503E-001	-1.9596449E+000	0
2.988089924514352E+002	-1.5497635E-001	-1.9596449E+000	0
2.988127924513392E+002	-1.5367867E-001	-1.9596386E+000	0
2.988197924511624E+002	-1.5266725E-001	-1.9596449E+000	0
2.988275924509653E+002	-1.5121689E-001	-1.9596322E+000	0
2.988305924508895E+002	-1.4995739E-001	-1.9596130E+000	0
2.988417924506066E+002	-1.5100698E-001	-1.9596003E+000	0
2.988439924505510E+002	-1.4988105E-001	-1.9596322E+000	0
2.988539924502984E+002	-1.4871696E-001	-1.9596003E+000	0
2.988767924497224E+002	-1.4984289E-001	-1.9595939E+000	0
2.988811924496113E+002	-1.5089248E-001	-1.9596641E+000	0
2.988863924494799E+002	-1.4936580E-001	-1.9596130E+000	0
2.989081924489292E+002	-1.4833529E-001	-1.9596003E+000	0
2.989259924484795E+002	-1.4942305E-001	-1.9596449E+000	0
2.989331924482976E+002	-1.5049173E-001	-1.9595877E+000	0
2.989411924480955E+002	-1.5154132E-001	-1.9596130E+000	0
2.989513924478379E+002	-1.5039632E-001	-1.9596068E+000	0
2.989523924478126E+002	-1.5144591E-001	-1.9595494E+000	0
2.989545924477570E+002	-1.5024364E-001	-1.9596003E+000	0
2.989587924476509E+002	-1.4921314E-001	-1.9596767E+000	0
2.989603924476105E+002	-1.5026273E-001	-1.9596068E+000	0
2.989725924473023E+002	-1.4925130E-001	-1.9596322E+000	0
2.989795924471255E+002	-1.4766736E-001	-1.9595939E+000	0
2.989837924470194E+002	-1.4665595E-001	-1.9596194E+000	0
2.989879924469133E+002	-1.4554910E-001	-1.9595622E+000	0
2.989887924468931E+002	-1.4430867E-001	-1.9596322E+000	0
2.989913924468274E+002	-1.4323999E-001	-1.9596068E+000	0
2.989933924467769E+002	-1.4205681E-001	-1.9596449E+000	0
2.990015924465697E+002	-1.4096905E-001	-1.9596577E+000	0
2.990155924462160E+002	-1.3993855E-001	-1.9595939E+000	0
2.990217924460594E+002	-1.3881262E-001	-1.9596449E+000	0
2.990235924460139E+002	-1.3762943E-001	-1.9596003E+000	0
2.990263924459432E+002	-1.3654168E-001	-1.9596322E+000	0
2.990351924457209E+002	-1.3551116E-001	-1.9595622E+000	0
2.990705924448266E+002	-1.3442340E-001	-1.9596068E+000	0
2.990803924445790E+002	-1.3293490E-001	-1.9596767E+000	0
2.990815924445487E+002	-1.3175172E-001	-1.9596386E+000	0
2.990837924444932E+002	-1.3060670E-001	-1.9596130E+000	0
2.990863924444275E+002	-1.2953803E-001	-1.9595686E+000	0
2.990883924443770E+002	-1.3054945E-001	-1.9595622E+000	0
2.991047924439627E+002	-1.2940444E-001	-1.9596386E+000	0
2.991101924438262E+002	-1.2831669E-001	-1.9596703E+000	0
2.991563924426591E+002	-1.2686633E-001	-1.9596194E+000	0
2.991655924424267E+002	-1.2572132E-001	-1.9595877E+000	0
2.991673924423812E+002	-1.2470990E-001	-1.9596258E+000	0
2.991813924420276E+002	-1.2579766E-001	-1.9596068E+000	0
2.991901924418053E+002	-1.2470990E-001	-1.9596703E+000	0
2.991909924417851E+002	-1.2354580E-001	-1.9595877E+000	0
2.991947924416891E+002	-1.2245804E-001	-1.9596130E+000	0
2.991953924416739E+002	-1.2114128E-001	-1.9595748E+000	0
2.992091924413253E+002	-1.2009168E-001	-1.9596068E+000	0
2.992311924407695E+002	-1.1904209E-001	-1.9595748E+000	0
2.992909924392588E+002	-1.1797342E-001	-1.9596322E+000	0
2.993001924390264E+002	-1.1688565E-001	-1.9595686E+000	0
2.993229924384505E+002	-1.1793525E-001	-1.9596068E+000	0
2.993717924372177E+002	-1.1894668E-001	-1.9596130E+000	0
2.993911924367276E+002	-1.1766808E-001	-1.9596130E+000	0
2.994049924363790E+002	-1.1661848E-001	-1.9596194E+000	0
2.994219924359495E+002	-1.1553073E-001	-1.9596258E+000	0
2.994701924347319E+002	-1.1444297E-001	-1.9596258E+000	0
2.994749924346106E+002	-1.1341245E-001	-1.9596130E+000	0
2.995627924323926E+002	-1.1238194E-001	-1.9596894E+000	0
2.995715924321703E+002	-1.1137052E-001	-1.9596068E+000	0
2.996167924310284E+002	-1.1034001E-001	-1.9595939E+000	0
2.996279924307455E+002	-1.0919500E-001	-1.9596449E+000	0
2.996393924304575E+002	-1.0818357E-001	-1.9596068E+000	0
2.996407924304222E+002	-1.0707673E-001	-1.9596068E+000	0
2.996513924301544E+002	-1.0606530E-001	-1.9596258E+000	0
2.996613924299018E+002	-1.0505387E-001	-1.9596194E+000	0
2.997263924282597E+002	-1.0398520E-001	-1.9596194E+000	0
2.997607924273907E+002	-1.0297377E-001	-1.9596068E+000	0
2.998053924262640E+002	-1.0196234E-001	-1.9596068E+000	0
2.998673924246978E+002	-1.0093184E-001	-1.9596322E+000	0
2.998805924243643E+002	-9.9901326E-002	-1.9596322E+000	0
2.999521924225555E+002	-9.8851733E-002	-1.9596258E+000	0
2.999767924219341E+002	-9.7802140E-002	-1.9596068E+000	0
3.000191924208630E+002	-9.6752547E-002	-1.9596194E+000	0
3.000453924202011E+002	-9.5741116E-002	-1.9595304E+000	0
3.000801924193220E+002	-9.4710611E-002	-1.9595939E+000	0
3.001183924183570E+002	-9.3622848E-002	-1.9596068E+000	0
3.001433924177254E+002	-9.2611425E-002	-1.9596449E+000	0
3.001969924163714E+002	-9.3699180E-002	-1.9595748E+000	0
3.002487924150628E+002	-9.2668675E-002	-1.9595939E+000	0
3.003333924129256E+002	-9.1638163E-002	-1.9596130E+000	0
3.004515924099396E+002	-9.0607651E-002	-1.9596449E+000	0
3.004991924087371E+002	-8.9596227E-002	-1.9596130E+000	0
3.005383924077469E+002	-8.8451214E-002	-1.9596449E+000	0
3.005667924070294E+002	-8.7363452E-002	-1.9596258E+000	0
3.006011924061604E+002	-8.5894026E-002	-1.9596322E+000	0
3.007651924020174E+002	-8.4825344E-002	-1.9596386E+000	0
3.009657923969498E+002	-8.3756670E-002	-1.9595813E+000	0
3.010931923937314E+002	-8.2745239E-002	-1.9596577E+000	0
3.011831923914579E+002	-8.1695646E-002	-1.9595939E+000	0
3.012025923909678E+002	-8.0550641E-002	-1.9595748E+000	0
3.012493923897855E+002	-7.9501048E-002	-1.9596386E+000	0
3.013205923879868E+002	-7.8489617E-002	-1.9596512E+000	0
3.015051923833234E+002	-7.7420942E-002	-1.9596194E+000	0
3.015989923809539E+002	-7.6390430E-002	-1.9596068E+000	0
3.017511923771090E+002	-7.5283587E-002	-1.9596641E+000	0
3.019627923717635E+002	-7.4214913E-002	-1.9595367E+000	0
3.022465923645941E+002	-7.3165320E-002	-1.9595494E+000	0
3.025163923577784E+002	-7.2153889E-002	-1.9596512E+000	0
3.028487923493813E+002	-7.1142465E-002	-1.9596130E+000	0
3.033967923355376E+002	-7.0111953E-002	-1.9596577E+000	0
3.040171923198650E+002	-6.9081441E-002	-1.9596322E+000	0
3.041975923153077E+002	-6.8050936E-002	-1.9596258E+000	0
3.055127922820830E+002	-6.7020424E-002	-1.9596512E+000	0
3.060033922696894E+002	-6.6009000E-002	-1.9596130E+000	0
3.063227922616206E+002	-6.4997569E-002	-1.9596194E+000	0
3.069621922454680E+002	-6.3986145E-002	-1.9596449E+000	0
3.076393922283605E+002	-6.2936552E-002	-1.9595939E+000	0
3.081057922165783E+002	-6.1925128E-002	-1.9596512E+000	0
3.089449921953783E+002	-6.0875531E-002	-1.9596641E+000	0
3.096339921779727E+002	-5.9864108E-002	-1.9596130E+000	0
3.111697921391751E+002	-5.8852680E-002	-1.9596130E+000	0
3.141591920636565E+002	-5.7822172E-002	-1.9596194E+000	0
3.146599920510052E+002	-5.6810744E-002	-1.9596194E+000	0
3.171643919877388E+002	-5.5703901E-002	-1.9595622E+000	0
3.221643918614282E+002	-5.5799317E-002	-1.9596577E+000	0
3.236619918235956E+002	-5.6810744E-002	-1.9596449E+000	0
3.286619916972850E+002	-5.6848910E-002	-1.9595813E+000	0
3.321303916096658E+002	-5.7879422E-002	-1.9596130E+000	0
3.333615915785631E+002	-5.6867994E-002	-1.9596258E+000	0
3.351685915329144E+002	-5.5856567E-002	-1.9596386E+000	0
3.374613914749934E+002	-5.6867994E-002	-1.9596322E+000	0
3.377441914678493E+002	-5.5799317E-002	-1.9596577E+000	0
3.382753914544301E+002	-5.6829829E-002	-1.9596130E+000	0
3.402667914041231E+002	-5.7860337E-002	-1.9596386E+000	0
3.452667912778124E+002	-5.7593167E-002	-1.9596322E+000	0
3.465809912446130E+002	-5.8623679E-002	-1.9596386E+000	0
3.471877912292839E+002	-5.7612251E-002	-1.9596641E+000	0
3.501883911534824E+002	-5.8661845E-002	-1.9595939E+000	0
3.520725911058835E+002	-5.9730522E-002	-1.9596449E+000	0
3.537137910644233E+002	-6.0741950E-002	-1.9595748E+000	0
3.587137909381127E+002	-6.0761031E-002	-1.9596130E+000	0
3.637137908118020E+002	-6.0512945E-002	-1.9596130E+000	0
3.682797906964552E+002	-6.1524373E-002	-1.9596130E+000	0
3.690223906776955E+002	-6.0512945E-002	-1.9595939E+000	0
3.691447906746034E+002	-6.1543457E-002	-1.9596577E+000	0
3.719133906046627E+002	-6.2554881E-002	-1.9596003E+000	0
3.744777905398805E+002	-6.1524373E-002	-1.9596194E+000	0
3.793013904180261E+002	-6.2745713E-002	-1.9596258E+000	0
3.810307903743378E+002	-6.3814394E-002	-1.9596386E+000	0
3.823943903398904E+002	-6.2802963E-002	-1.9596512E+000	0
3.873943902135798E+002	-6.3623555E-002	-1.9595939E+000	0
3.903717901383643E+002	-6.4654067E-002	-1.9596512E+000	0
3.948305900257255E+002	-6.5665491E-002	-1.9595813E+000	0
3.990541899190284E+002	-6.6676922E-002	-1.9596641E+000	0
4.002315898892848E+002	-6.5646410E-002	-1.9596258E+000	0
4.044263897833152E+002	-6.6657834E-002	-1.9595939E+000	0
4.094263896570046E+002	-6.7230344E-002	-1.9596703E+000	0
4.118123895967292E+002	-6.8241768E-002	-1.9596641E+000	0
4.140623895398894E+002	-6.9310449E-002	-1.9596258E+000	0
4.146485895250808E+002	-7.0321873E-002	-1.9596512E+000	0
4.185237894271850E+002	-7.1333297E-002	-1.9595877E+000	0
4.235237893008743E+002	-7.1867637E-002	-1.9596449E+000	0
4.257519892445853E+002	-7.2058469E-002	-1.9597023E+000	0