time/s	Ewe/V	I/mA	error	
6.005299848293362E+001	2.7791948E+000	-2.5030727E-002	0
6.017319847989711E+001	9.1647273E-003	-1.7871132E+001	0
6.017359847988700E+001	9.2601450E-003	-1.7788225E+001	0
6.017399847987690E+001	9.3173962E-003	-1.7719990E+001	0
6.017439847986680E+001	9.1647273E-003	-1.7626240E+001	0
6.017479847985669E+001	9.1456445E-003	-1.7556726E+001	0
6.017519847984659E+001	9.2410613E-003	-1.7469357E+001	0
6.017559847983648E+001	9.1838110E-003	-1.7391554E+001	0
6.017599847982638E+001	9.2601450E-003	-1.7314388E+001	0
6.017639847981627E+001	9.1838110E-003	-1.7237860E+001	0
6.017679847980617E+001	9.3364790E-003	-1.7161968E+001	0
6.017719847979606E+001	9.1074770E-003	-1.7090542E+001	0
6.017759847978596E+001	9.1456445E-003	-1.7018478E+001	0
6.017799847977585E+001	9.1456445E-003	-1.6943861E+001	0
6.017839847976575E+001	9.2601450E-003	-1.6866058E+001	0
6.017879847975564E+001	9.2410613E-003	-1.6804199E+001	0
6.017919847974554E+001	9.2219785E-003	-1.6723845E+001	0
6.017959847973543E+001	9.2219785E-003	-1.6651142E+001	0
6.017999847972533E+001	9.2219785E-003	-1.6581629E+001	0
6.018039847971522E+001	9.2601450E-003	-1.6508928E+001	0
6.018079847970512E+001	9.1647273E-003	-1.6442602E+001	0
6.018119847969501E+001	9.2792287E-003	-1.6372450E+001	0
6.018159847968491E+001	9.1838110E-003	-1.6305489E+001	0
6.018199847967480E+001	9.1838110E-003	-1.6230236E+001	0
6.018239847966470E+001	9.2410613E-003	-1.6163910E+001	0
6.018279847965459E+001	9.1265608E-003	-1.6100138E+001	0
6.018319847964449E+001	9.2983125E-003	-1.6033175E+001	0
6.018359847963438E+001	9.1647273E-003	-1.5968762E+001	0
6.018399847962428E+001	9.2219785E-003	-1.5904989E+001	0
6.018439847961417E+001	9.1647273E-003	-1.5831651E+001	0
6.018479847960407E+001	9.1838110E-003	-1.5771702E+001	0
6.018519847959396E+001	9.2028948E-003	-1.5702188E+001	0
6.018559847958386E+001	9.2028948E-003	-1.5638416E+001	0
6.018599847957375E+001	9.1647273E-003	-1.5570178E+001	0
6.018639847956365E+001	9.3364790E-003	-1.5508319E+001	0
6.018679847955354E+001	9.1838110E-003	-1.5443269E+001	0
6.018719847954344E+001	9.2792287E-003	-1.5392250E+001	0
6.018759847953334E+001	9.2219785E-003	-1.5322099E+001	0
6.018799847952323E+001	9.2028948E-003	-1.5262152E+001	0
6.018839847951313E+001	9.1647273E-003	-1.5206031E+001	0
6.018879847950302E+001	9.2410613E-003	-1.5144170E+001	0
6.018919847949292E+001	9.2601450E-003	-1.5079122E+001	0
6.018959847948281E+001	9.2792287E-003	-1.5026189E+001	0
6.018999847947271E+001	9.2028948E-003	-1.4959227E+001	0
6.019039847946260E+001	9.2983125E-003	-1.4899917E+001	0
6.019079847945250E+001	9.2601450E-003	-1.4844435E+001	0
6.019119847944239E+001	9.2028948E-003	-1.4792140E+001	0
6.019159847943229E+001	9.1647273E-003	-1.4723901E+001	0
6.019219847941713E+001	9.1647273E-003	-1.4648649E+001	0
6.019259847940702E+001	9.1647273E-003	-1.4587425E+001	0
6.019299847939692E+001	9.2792287E-003	-1.4533219E+001	0
6.019339847938681E+001	9.1074770E-003	-1.4471358E+001	0
6.019379847937671E+001	9.1074770E-003	-1.4419064E+001	0
6.019439847936155E+001	9.1647273E-003	-1.4343812E+001	0
6.019479847935145E+001	9.2219785E-003	-1.4285139E+001	0
6.019519847934134E+001	9.2219785E-003	-1.4228381E+001	0
6.019559847933124E+001	9.2410613E-003	-1.4176085E+001	0
6.019599847932113E+001	9.2792287E-003	-1.4123154E+001	0
6.019659847930598E+001	9.1838110E-003	-1.4040248E+001	0
6.019719847929082E+001	9.2983125E-003	-1.3959893E+001	0
6.019759847928071E+001	9.2983125E-003	-1.3908237E+001	0
6.019819847926556E+001	9.2410613E-003	-1.3830434E+001	0
6.019879847925040E+001	9.1647273E-003	-1.3756456E+001	0
6.019939847923524E+001	9.2028948E-003	-1.3686304E+001	0
6.019979847922514E+001	9.1456445E-003	-1.3625082E+001	0
6.020039847920998E+001	9.2028948E-003	-1.3558120E+001	0
6.020079847919988E+001	9.2792287E-003	-1.3505826E+001	0
6.020119847918977E+001	9.2028948E-003	-1.3454169E+001	0
6.020159847917967E+001	9.0502268E-003	-1.3401874E+001	0
6.020219847916451E+001	9.2601450E-003	-1.3336186E+001	0
6.020279847914935E+001	9.2601450E-003	-1.3257109E+001	0
6.020339847913419E+001	9.2410613E-003	-1.3193973E+001	0
6.020399847911904E+001	9.2219785E-003	-1.3125096E+001	0
6.020439847910893E+001	9.2028948E-003	-1.3070889E+001	0
6.020499847909377E+001	9.2219785E-003	-1.3005839E+001	0
6.020559847907862E+001	9.1647273E-003	-1.2931864E+001	0
6.020619847906346E+001	9.1838110E-003	-1.2866814E+001	0
6.020679847904830E+001	9.2983125E-003	-1.2800488E+001	0
6.020719847903820E+001	9.3364790E-003	-1.2750108E+001	0
6.020779847902304E+001	9.2601450E-003	-1.2697175E+001	0
6.020819847901294E+001	9.2028948E-003	-1.2644880E+001	0
6.020879847899778E+001	9.2983125E-003	-1.2577918E+001	0
6.020939847898262E+001	9.2219785E-003	-1.2524348E+001	0
6.020979847897252E+001	9.2601450E-003	-1.2471417E+001	0
6.021039847895736E+001	9.1456445E-003	-1.2405730E+001	0
6.021099847894220E+001	9.3364790E-003	-1.2348971E+001	0
6.021159847892704E+001	9.3555627E-003	-1.2283285E+001	0
6.021219847891189E+001	9.1647273E-003	-1.2230990E+001	0
6.021279847889673E+001	9.2792287E-003	-1.2160839E+001	0
6.021339847888157E+001	9.2410613E-003	-1.2102167E+001	0
6.021399847886642E+001	9.3364790E-003	-1.2034568E+001	0
6.021459847885126E+001	9.2601450E-003	-1.1979085E+001	0
6.021539847883105E+001	9.1838110E-003	-1.1901280E+001	0
6.021599847881589E+001	9.1838110E-003	-1.1846435E+001	0
6.021659847880073E+001	9.2983125E-003	-1.1783937E+001	0
6.021719847878558E+001	9.2410613E-003	-1.1724628E+001	0
6.021779847877042E+001	9.2410613E-003	-1.1671059E+001	0
6.021839847875526E+001	9.2219785E-003	-1.1614937E+001	0
6.021899847874010E+001	9.2410613E-003	-1.1562642E+001	0
6.021959847872495E+001	9.2792287E-003	-1.1500783E+001	0
6.022019847870979E+001	9.1838110E-003	-1.1450401E+001	0
6.022079847869463E+001	9.2028948E-003	-1.1395555E+001	0
6.022139847867948E+001	9.1265608E-003	-1.1340073E+001	0
6.022199847866432E+001	9.2792287E-003	-1.1285227E+001	0
6.022279847864411E+001	9.2601450E-003	-1.1211250E+001	0
6.022359847862390E+001	9.1647273E-003	-1.1138548E+001	0
6.022439847860369E+001	9.2410613E-003	-1.1081152E+001	0
6.022499847858853E+001	9.2028948E-003	-1.1023117E+001	0
6.022559847857337E+001	9.2028948E-003	-1.0972736E+001	0
6.022619847855822E+001	9.1647273E-003	-1.0916615E+001	0
6.022699847853801E+001	9.2792287E-003	-1.0857944E+001	0
6.022759847852285E+001	9.2028948E-003	-1.0799272E+001	0
6.022839847850264E+001	9.2983125E-003	-1.0742514E+001	0
6.022919847848243E+001	9.2028948E-003	-1.0675550E+001	0
6.022979847846727E+001	9.2601450E-003	-1.0620068E+001	0
6.023059847844706E+001	9.2601450E-003	-1.0560759E+001	0
6.023139847842685E+001	9.2219785E-003	-1.0497622E+001	0
6.023219847840664E+001	9.1456445E-003	-1.0444053E+001	0
6.023299847838643E+001	9.2028948E-003	-1.0379004E+001	0
6.023379847836623E+001	9.2410613E-003	-1.0313316E+001	0
6.023459847834602E+001	9.2601450E-003	-1.0252093E+001	0
6.023539847832581E+001	9.2410613E-003	-1.0197886E+001	0
6.023619847830560E+001	9.2792287E-003	-1.0136026E+001	0
6.023699847828539E+001	9.2410613E-003	-1.0079905E+001	0
6.023779847826518E+001	9.2792287E-003	-1.0023147E+001	0
6.023859847824497E+001	9.1838110E-003	-9.9689388E+000	0
6.023939847822476E+001	9.2219785E-003	-9.9140940E+000	0
6.024019847820455E+001	9.3364790E-003	-9.8503199E+000	0
6.024099847818434E+001	9.2410613E-003	-9.7980251E+000	0
6.024179847816413E+001	9.0693096E-003	-9.7470064E+000	0
6.024259847814392E+001	9.2792287E-003	-9.6813192E+000	0
6.024359847811866E+001	9.1456445E-003	-9.6220102E+000	0
6.024459847809339E+001	9.2601450E-003	-9.5556860E+000	0
6.024539847807318E+001	9.2410613E-003	-9.5053043E+000	0
6.024619847805297E+001	9.2792287E-003	-9.4510965E+000	0
6.024719847802771E+001	9.1456445E-003	-9.3898745E+000	0
6.024819847800245E+001	9.1647273E-003	-9.3299265E+000	0
6.024899847798224E+001	9.2601450E-003	-9.2706175E+000	0
6.024999847795698E+001	9.2028948E-003	-9.2195988E+000	0
6.025099847793172E+001	9.2410613E-003	-9.1539116E+000	0
6.025199847790645E+001	9.2410613E-003	-9.0939636E+000	0
6.025299847788119E+001	9.3364790E-003	-9.0384808E+000	0
6.025379847786098E+001	9.2028948E-003	-8.9855490E+000	0
6.025479847783572E+001	9.2983125E-003	-8.9268780E+000	0
6.025579847781046E+001	9.2601450E-003	-8.8682051E+000	0
6.025679847778520E+001	9.2028948E-003	-8.8146353E+000	0
6.025759847776499E+001	9.3173962E-003	-8.7604284E+000	0
6.025879847773467E+001	9.1838110E-003	-8.7043076E+000	0
6.025979847770941E+001	9.2219785E-003	-8.6507378E+000	0
6.026079847768415E+001	9.2792287E-003	-8.5920658E+000	0
6.026179847765889E+001	9.2792287E-003	-8.5346699E+000	0
6.026299847762857E+001	9.2601450E-003	-8.4779110E+000	0
6.026399847760331E+001	9.2983125E-003	-8.4217901E+000	0
6.026499847757805E+001	9.2601450E-003	-8.3675823E+000	0
6.026619847754773E+001	9.2028948E-003	-8.3089113E+000	0
6.026739847751742E+001	9.2410613E-003	-8.2540655E+000	0
6.026839847749216E+001	9.2601450E-003	-8.1985826E+000	0
6.026959847746184E+001	9.2983125E-003	-8.1437368E+000	0
6.027059847743658E+001	9.1838110E-003	-8.0927181E+000	0
6.027179847740626E+001	9.1647273E-003	-8.0359592E+000	0
6.027279847738100E+001	9.2601450E-003	-7.9843020E+000	0
6.027419847734564E+001	9.2410613E-003	-7.9243555E+000	0
6.027539847731532E+001	9.2792287E-003	-7.8682346E+000	0
6.027659847728501E+001	9.2410613E-003	-7.8127518E+000	0
6.027799847724964E+001	9.3173962E-003	-7.7489781E+000	0
6.027919847721932E+001	9.2410613E-003	-7.6979599E+000	0
6.028039847718901E+001	9.2601450E-003	-7.6450276E+000	0
6.028159847715870E+001	9.2219785E-003	-7.5895438E+000	0
6.028299847712333E+001	9.2219785E-003	-7.5308723E+000	0
6.028439847708796E+001	9.2219785E-003	-7.4734764E+000	0
6.028579847705259E+001	9.2028948E-003	-7.4167175E+000	0
6.028719847701723E+001	9.1838110E-003	-7.3644228E+000	0
6.028839847698691E+001	9.2601450E-003	-7.3134046E+000	0
6.028959847695660E+001	9.2601450E-003	-7.2611094E+000	0
6.029099847692123E+001	9.1647273E-003	-7.2088151E+000	0
6.029259847688081E+001	9.1838110E-003	-7.1463165E+000	0
6.029419847684039E+001	9.3555627E-003	-7.0819058E+000	0
6.029559847680503E+001	9.2410613E-003	-7.0283360E+000	0
6.029719847676461E+001	9.2601450E-003	-6.9709401E+000	0
6.029879847672419E+001	9.2410613E-003	-6.9129057E+000	0
6.030019847668882E+001	9.1456445E-003	-6.8580604E+000	0
6.030179847664840E+001	9.2792287E-003	-6.8032150E+000	0
6.030339847660798E+001	9.2601450E-003	-6.7464566E+000	0
6.030519847656251E+001	9.2410613E-003	-6.6941624E+000	0
6.030679847652209E+001	9.2983125E-003	-6.6361284E+000	0
6.030839847648167E+001	9.2410613E-003	-6.5831957E+000	0
6.031019847643620E+001	9.1838110E-003	-6.5270758E+000	0
6.031159847640083E+001	9.3364790E-003	-6.4754190E+000	0
6.031339847635536E+001	9.2028948E-003	-6.4250369E+000	0
6.031499847631494E+001	9.1265608E-003	-6.3682785E+000	0
6.031679847626947E+001	9.2601450E-003	-6.3115201E+000	0
6.031879847621894E+001	9.2410613E-003	-6.2566748E+000	0
6.032059847617347E+001	9.1265608E-003	-6.2031050E+000	0
6.032239847612800E+001	9.2983125E-003	-6.1495352E+000	0
6.032439847607748E+001	9.2792287E-003	-6.0857615E+000	0
6.032659847602190E+001	9.2028948E-003	-6.0296407E+000	0
6.032839847597643E+001	9.2792287E-003	-5.9773464E+000	0
6.033039847592590E+001	9.2410613E-003	-5.9231386E+000	0
6.033239847587538E+001	9.2219785E-003	-5.8721199E+000	0
6.033419847582991E+001	9.2028948E-003	-5.8211012E+000	0
6.033639847577433E+001	9.1838110E-003	-5.7688065E+000	0
6.033859847571875E+001	9.1647273E-003	-5.7165122E+000	0
6.034039847567328E+001	9.1647273E-003	-5.6629424E+000	0
6.034279847561265E+001	9.2792287E-003	-5.6119232E+000	0
6.034499847555708E+001	9.1838110E-003	-5.5577159E+000	0
6.034719847550150E+001	9.2601450E-003	-5.5066967E+000	0
6.034939847544592E+001	9.1456445E-003	-5.4563155E+000	0
6.035159847539035E+001	9.1838110E-003	-5.4027457E+000	0
6.035399847532972E+001	9.2601450E-003	-5.3479004E+000	0
6.035619847527414E+001	9.1647273E-003	-5.2968817E+000	0
6.035839847521856E+001	9.2410613E-003	-5.2452254E+000	0
6.036099847515288E+001	9.1838110E-003	-5.1916556E+000	0
6.036379847508215E+001	9.2219785E-003	-5.1399980E+000	0
6.036639847501647E+001	9.2219785E-003	-5.0896168E+000	0
6.036899847495079E+001	9.2219785E-003	-5.0366845E+000	0
6.037159847488510E+001	9.1456445E-003	-4.9831147E+000	0
6.037459847480932E+001	9.2028948E-003	-4.9269943E+000	0
6.037759847473353E+001	9.2410613E-003	-4.8721485E+000	0
6.038039847466280E+001	9.2219785E-003	-4.8153906E+000	0
6.038359847458196E+001	9.1265608E-003	-4.7630959E+000	0
6.038679847450112E+001	9.2028948E-003	-4.7069755E+000	0
6.038979847442533E+001	9.1456445E-003	-4.6534052E+000	0
6.039299847434449E+001	9.2219785E-003	-4.6011109E+000	0
6.039619847426366E+001	9.2601450E-003	-4.5456281E+000	0
6.039979847417271E+001	9.1456445E-003	-4.4882317E+000	0
6.040339847408177E+001	9.1647273E-003	-4.4333863E+000	0
6.040759847397567E+001	9.2601450E-003	-4.3779030E+000	0
6.041099847388978E+001	9.1838110E-003	-4.3262467E+000	0
6.041459847379883E+001	9.1838110E-003	-4.2726769E+000	0
6.041819847370789E+001	9.2983125E-003	-4.2184691E+000	0
6.042239847360179E+001	9.2219785E-003	-4.1655369E+000	0
6.042659847349569E+001	9.2792287E-003	-4.1119671E+000	0
6.043019847340474E+001	9.2219785E-003	-4.0596728E+000	0
6.043439847329864E+001	9.1838110E-003	-4.0073781E+000	0
6.043939847317233E+001	9.2219785E-003	-3.9493442E+000	0
6.044419847305107E+001	9.2219785E-003	-3.8983252E+000	0
6.044839847294497E+001	9.2601450E-003	-3.8453932E+000	0
6.045299847282877E+001	9.2410613E-003	-3.7950120E+000	0
6.045759847271256E+001	9.2219785E-003	-3.7439930E+000	0
6.046259847258625E+001	9.2792287E-003	-3.6923363E+000	0
6.046739847246499E+001	9.1838110E-003	-3.6406801E+000	0
6.047279847232858E+001	9.1647273E-003	-3.5871098E+000	0
6.050359847155050E+001	9.2410613E-003	-3.3394783E+000	0
6.050979847139388E+001	9.2983125E-003	-3.2889938E+000	0
6.051619847123220E+001	9.2028948E-003	-3.2384453E+000	0
6.052299847106042E+001	9.2601450E-003	-3.1861784E+000	0
6.052979847088864E+001	9.4128130E-003	-3.1358211E+000	0
6.053679847071180E+001	9.2601450E-003	-3.0852730E+000	0
6.054419847052486E+001	9.2983125E-003	-3.0347884E+000	0
6.055179847033287E+001	9.2410613E-003	-2.9836674E+000	0
6.055979847013077E+001	9.1647273E-003	-2.9327371E+000	0
6.056799846992362E+001	9.1838110E-003	-2.8818069E+000	0
6.057659846970637E+001	9.2792287E-003	-2.8316405E+000	0
6.058539846948406E+001	9.2028948E-003	-2.7803919E+000	0
6.059459846925165E+001	9.1838110E-003	-2.7291436E+000	0
6.060419846900913E+001	9.1265608E-003	-2.6790409E+000	0
6.061419846875651E+001	9.1838110E-003	-2.6281109E+000	0
6.062459846849379E+001	9.1456445E-003	-2.5773077E+000	0
6.063539846822096E+001	9.2792287E-003	-2.5271416E+000	0
6.064659846793802E+001	9.2219785E-003	-2.4764662E+000	0
6.065859846763487E+001	9.2028948E-003	-2.4252174E+000	0
6.067099846732162E+001	9.1838110E-003	-2.3747964E+000	0
6.068399846699322E+001	9.1838110E-003	-2.3238664E+000	0
6.069759846664965E+001	9.1838110E-003	-2.2735093E+000	0
6.071159846629598E+001	9.1838110E-003	-2.2234066E+000	0
6.072619846592715E+001	9.2028948E-003	-2.1730492E+000	0
6.074239846551791E+001	9.3555627E-003	-2.1222463E+000	0
6.075879846510361E+001	9.3746465E-003	-2.0720165E+000	0
6.077619846466405E+001	9.3173962E-003	-2.0215955E+000	0
6.079459846419923E+001	9.2601450E-003	-1.9713655E+000	0
6.081359846371925E+001	9.2410613E-003	-1.9213266E+000	0
6.083439846319379E+001	9.2410613E-003	-1.8710966E+000	0
6.085619846264308E+001	9.2028948E-003	-1.8204848E+000	0
6.087899846206710E+001	9.2792287E-003	-1.7699364E+000	0
6.090399846143555E+001	9.2028948E-003	-1.7197065E+000	0
6.093019846077368E+001	9.2601450E-003	-1.6696039E+000	0
6.095819846006634E+001	9.2410613E-003	-1.6195651E+000	0
6.098819845930848E+001	9.2219785E-003	-1.5693988E+000	0
6.102039845849504E+001	9.0883933E-003	-1.5190415E+000	0
6.105559845760581E+001	9.2028948E-003	-1.4686207E+000	0
6.109319845665595E+001	9.2410613E-003	-1.4185816E+000	0
6.113439845561516E+001	9.3555627E-003	-1.3680335E+000	0
6.117979845446825E+001	9.2601450E-003	-1.3173579E+000	0
6.122979845320515E+001	9.2983125E-003	-1.2671916E+000	0
6.128339845185110E+001	9.2028948E-003	-1.2170255E+000	0
6.134419845031516E+001	9.2410613E-003	-1.1664135E+000	0
6.140999844865291E+001	9.2410613E-003	-1.1158652E+000	0
6.148539844674815E+001	9.1456445E-003	-1.0654444E+000	0
6.156799844466150E+001	9.1647273E-003	-1.0152144E+000	0
6.166319844225654E+001	9.2792287E-003	-9.6511179E-001	0
6.177079843953834E+001	9.2983125E-003	-9.1507286E-001	0
6.189339843644120E+001	9.2219785E-003	-8.6452466E-001	0
6.203619843283377E+001	9.1456445E-003	-8.1448567E-001	0
6.220079842867563E+001	9.2792287E-003	-7.6444679E-001	0
6.239739842370909E+001	9.2983125E-003	-7.1408957E-001	0
6.262659841791901E+001	9.1647273E-003	-6.6405058E-001	0
6.290799841081025E+001	9.3173962E-003	-6.1401170E-001	0
6.324639840226155E+001	9.2219785E-003	-5.6390911E-001	0
6.367499839143420E+001	9.2410613E-003	-5.1374280E-001	0
6.423659837724699E+001	9.2410613E-003	-4.6306720E-001	0
6.505279835662805E+001	9.2219785E-003	-4.1428518E-001	0
6.505339835659834E+001	9.2601450E-003	-4.1369936E-001	0
6.609599833026004E+001	9.1838110E-003	-3.6367649E-001	0
6.761319829193235E+001	9.2410613E-003	-3.1367278E-001	0
6.994519823302107E+001	9.1838110E-003	-2.6364991E-001	0
7.387919813363987E+001	9.1838110E-003	-2.1359524E-001	0
8.154259794004611E+001	9.1647273E-003	-1.6348325E-001	0
9.154259768742486E+001	9.2792287E-003	-1.3083085E-001	0
1.015425974348036E+002	9.1265608E-003	-1.1047405E-001	0
1.115425971821824E+002	9.2219785E-003	-9.5593259E-002	0
1.215425969295611E+002	9.2601450E-003	-8.4131815E-002	0
1.315425966769399E+002	9.2792287E-003	-7.4956290E-002	0
1.415425964243186E+002	9.2028948E-003	-6.8117626E-002	0
1.515425961716974E+002	9.2028948E-003	-6.1616443E-002	0
1.615425959190761E+002	9.2601450E-003	-5.7299301E-002	0
1.715425956664549E+002	9.2219785E-003	-5.2835699E-002	0
1.815425954138336E+002	9.2028948E-003	-4.9352691E-002	0
1.915425951612124E+002	9.1838110E-003	-4.6391819E-002	0
2.015425949085911E+002	9.2219785E-003	-4.4098340E-002	0
2.115425946559699E+002	9.2028948E-003	-4.1668475E-002	0
2.215425944033486E+002	9.2028948E-003	-3.9480515E-002	0
2.315425941507274E+002	9.2983125E-003	-3.7506446E-002	0
2.415425938981061E+002	9.2410613E-003	-3.5792112E-002	0
2.515425936454849E+002	9.1456445E-003	-3.4141432E-002	0
2.615425933928636E+002	9.2601450E-003	-3.2557599E-002	0
2.715425931402424E+002	9.2410613E-003	-3.1202937E-002	0
2.815425928876211E+002	9.2219785E-003	-2.9959040E-002	0
2.915425926349999E+002	9.2219785E-003	-2.8699864E-002	0
3.015425923823786E+002	9.2028948E-003	-2.7741160E-002	0
3.115425921297574E+002	9.2028948E-003	-2.6665324E-002	0
3.215425918771361E+002	9.2792287E-003	-2.5679246E-002	0
3.315425916245149E+002	9.1838110E-003	-2.4670251E-002	0
3.415425913718937E+002	9.2792287E-003	-2.3971274E-002	0
3.515425911192724E+002	9.2028948E-003	-2.3269752E-002	0
3.615425908666512E+002	9.2601450E-003	-2.2482928E-002	0
3.715425906140299E+002	9.1647273E-003	-2.1838062E-002	0
3.815425903614087E+002	9.2410613E-003	-2.1219296E-002	0
3.915425901087874E+002	9.1647273E-003	-2.0546420E-002	0
4.015425898561662E+002	9.2983125E-003	-1.9967122E-002	0
4.115425896035449E+002	9.1074770E-003	-1.9431114E-002	0
4.215425893509237E+002	9.2601450E-003	-1.8845452E-002	0
4.315425890983024E+002	9.1265608E-003	-1.8285252E-002	0
4.415425888456812E+002	9.2601450E-003	-1.7829455E-002	0
4.515425885930599E+002	9.2219785E-003	-1.7475510E-002	0
4.615425883404387E+002	9.2028948E-003	-1.6945230E-002	0
4.715425880878174E+002	9.2601450E-003	-1.6573461E-002	0
4.815425878351962E+002	9.2219785E-003	-1.6171774E-002	0
4.915425875825749E+002	9.3364790E-003	-1.5833745E-002	0
5.015425873299537E+002	9.2219785E-003	-1.5401500E-002	0
5.115425870773324E+002	9.2792287E-003	-1.5078112E-002	0
5.215425868247112E+002	9.2601450E-003	-1.4661146E-002	0
5.315425865720899E+002	9.2219785E-003	-1.4412875E-002	0
5.415425863194687E+002	9.1456445E-003	-1.4037287E-002	0
5.515425860668474E+002	9.2410613E-003	-1.3710081E-002	0
5.615425858142262E+002	9.2410613E-003	-1.3410883E-002	0
5.715425855616049E+002	9.2219785E-003	-1.3160067E-002	0
5.815425853089837E+002	9.2410613E-003	-1.3007285E-002	0
5.915425850563624E+002	9.2792287E-003	-1.2770474E-002	0
6.015425848037412E+002	9.2601450E-003	-1.2286665E-002	0
6.115425845511199E+002	9.2219785E-003	-1.2196906E-002	0
6.215425842984987E+002	9.2410613E-003	-1.1905349E-002	0
6.315425840458774E+002	9.2601450E-003	-1.1716918E-002	0
6.415425837932562E+002	9.2028948E-003	-1.1489019E-002	0
6.515425835406350E+002	9.2410613E-003	-1.1363611E-002	0
6.615425832880137E+002	9.2219785E-003	-1.1056773E-002	0
6.715425830353925E+002	9.2601450E-003	-1.0940914E-002	0
6.815425827827712E+002	9.1456445E-003	-1.0688825E-002	0
6.915425825301500E+002	9.1265608E-003	-1.0476204E-002	0
7.015425822775287E+002	9.1647273E-003	-1.0211382E-002	0
7.115425820249075E+002	9.2601450E-003	-1.0092339E-002	0
7.215425817722862E+002	9.2219785E-003	-1.0005763E-002	0
7.315425815196650E+002	9.1647273E-003	-9.8065110E-003	0
7.415425812670437E+002	9.2983125E-003	-9.7129326E-003	0
7.515425810144225E+002	9.2219785E-003	-9.4633885E-003	0
7.615425807618012E+002	9.2028948E-003	-9.3341609E-003	0
7.715425805091800E+002	9.3364790E-003	-9.2208469E-003	0
7.815425802565587E+002	9.3364790E-003	-8.9095552E-003	0
7.915425800039375E+002	9.2028948E-003	-8.8478066E-003	0
8.015425797513162E+002	9.2028948E-003	-8.6752903E-003	0
8.115425794986950E+002	9.1265608E-003	-8.5428795E-003	0
8.215425792460737E+002	9.2601450E-003	-8.4747644E-003	0
8.315425789934525E+002	9.2219785E-003	-8.3200736E-003	0
8.415425787408312E+002	9.2028948E-003	-8.2678720E-003	0
8.515425784882100E+002	9.2028948E-003	-8.0654370E-003	0
8.615425782355887E+002	9.2601450E-003	-7.9393927E-003	0
8.715425779829675E+002	9.1456445E-003	-7.7904295E-003	0
8.815425777303462E+002	9.2028948E-003	-7.7509624E-003	0
8.915425774777250E+002	9.2219785E-003	-7.6039094E-003	0
9.015425772251037E+002	9.1838110E-003	-7.5090574E-003	0
9.115425769724825E+002	9.2219785E-003	-7.4065663E-003	0
9.215425767198612E+002	9.2983125E-003	-7.2856145E-003	0
9.315425764672400E+002	9.2028948E-003	-7.1818507E-003	0
9.415425762146187E+002	9.3364790E-003	-7.0481668E-003	0
9.515425759619975E+002	9.1838110E-003	-6.9673196E-003	0
9.615425757093763E+002	9.1074770E-003	-6.8877460E-003	0
9.715425754567550E+002	9.2219785E-003	-6.7063179E-003	0
9.815425752041338E+002	9.2601450E-003	-6.6814907E-003	0
9.915425749515125E+002	9.2792287E-003	-6.5694512E-003	0
1.001542574698891E+003	9.2792287E-003	-6.6324733E-003	0
1.011542574446270E+003	9.2028948E-003	-6.4612306E-003	0
1.021542574193649E+003	9.2792287E-003	-6.3581029E-003	0
1.031542573941028E+003	9.1838110E-003	-6.3351858E-003	0
1.041542573688406E+003	9.2983125E-003	-6.2403339E-003	0
1.051542573435785E+003	9.2219785E-003	-6.1232015E-003	0
1.061542573183164E+003	9.2410613E-003	-6.1321137E-003	0
1.071542572930543E+003	9.2983125E-003	-6.0353517E-003	0
1.081542572677921E+003	9.3173962E-003	-5.8653825E-003	0
1.091542572425300E+003	9.2601450E-003	-5.7628918E-003	0
1.101542572172679E+003	9.3173962E-003	-5.7374276E-003	0
1.111542571920058E+003	9.2601450E-003	-5.6922301E-003	0
1.121542571667436E+003	9.2792287E-003	-5.6343004E-003	0
1.131542571414815E+003	9.2601450E-003	-5.4942509E-003	0
1.141542571162194E+003	9.2410613E-003	-5.5095288E-003	0
1.151542570909573E+003	9.2410613E-003	-5.4980703E-003	0
1.161542570656951E+003	9.2028948E-003	-5.3535639E-003	0
1.171542570404330E+003	9.2028948E-003	-5.3249174E-003	0
1.181542570151709E+003	9.2028948E-003	-5.1772287E-003	0
1.191542569899088E+003	9.2983125E-003	-5.1320307E-003	0
1.201542569646466E+003	9.1647273E-003	-5.1352140E-003	0
1.211542569393845E+003	9.2028948E-003	-5.1339408E-003	0
1.221542569141224E+003	9.2028948E-003	-4.9798856E-003	0
1.231542568888603E+003	9.3173962E-003	-5.0339960E-003	0
1.241542568635981E+003	9.2792287E-003	-4.8506581E-003	0
1.251542568383360E+003	9.2792287E-003	-4.9104975E-003	0
1.261542568130739E+003	9.2219785E-003	-4.7354354E-003	0
1.271542567878118E+003	9.1838110E-003	-4.6622274E-003	0
1.281542567625496E+003	9.3173962E-003	-4.6488591E-003	0
1.291542567372875E+003	9.2219785E-003	-4.6132100E-003	0
1.301542567120254E+003	9.2601450E-003	-4.6743224E-003	0
1.311542566867633E+003	9.1838110E-003	-4.6494952E-003	0
1.321542566615011E+003	9.1838110E-003	-4.5177848E-003	0
1.331542566362390E+003	9.3937302E-003	-4.4851196E-003	0
1.341542566109769E+003	9.3364790E-003	-4.4131665E-003	0
1.351542565857148E+003	9.1456445E-003	-4.4192793E-003	0
1.361542565604526E+003	9.2219785E-003	-4.3760440E-003	0
1.371542565351905E+003	9.2219785E-003	-4.3304525E-003	0
1.381542565099284E+003	9.2219785E-003	-4.2615565E-003	0
1.391542564846663E+003	9.2028948E-003	-4.2199134E-003	0
1.401542564594041E+003	9.3173962E-003	-4.1994732E-003	0
1.411542564341420E+003	9.2219785E-003	-4.1538822E-003	0
1.421542564088799E+003	9.2410613E-003	-4.1308319E-003	0
1.431542563836178E+003	9.1838110E-003	-4.0611080E-003	0
1.441542563583556E+003	9.2410613E-003	-4.0463349E-003	0
1.451542563330935E+003	9.2410613E-003	-4.0170448E-003	0
1.461542563078314E+003	9.2219785E-003	-3.9773118E-003	0
1.471542562825693E+003	9.2983125E-003	-3.9665503E-003	0
1.481542562573071E+003	9.1647273E-003	-3.9082877E-003	0
1.491542562320450E+003	9.3364790E-003	-3.8513625E-003	0
1.501542562067829E+003	9.2028948E-003	-3.8274843E-003	0
1.511542561815208E+003	9.1265608E-003	-3.8027149E-003	0
1.521542561562586E+003	9.1838110E-003	-3.7589702E-003	0
1.531542561309965E+003	9.2410613E-003	-3.7128695E-003	0
1.541542561057344E+003	9.2792287E-003	-3.6847249E-003	0
1.551542560804723E+003	9.2410613E-003	-3.6896283E-003	0
1.561542560552101E+003	9.2410613E-003	-3.6596374E-003	0
1.571542560299480E+003	9.2219785E-003	-3.6414899E-003	0
1.581542560046859E+003	9.3364790E-003	-3.5605591E-003	0
1.591542559794238E+003	9.2601450E-003	-3.5611319E-003	0
1.601542559541616E+003	9.1838110E-003	-3.4973295E-003	0
1.611542559288995E+003	9.2410613E-003	-3.5170051E-003	0
1.621542559036374E+003	9.1456445E-003	-3.4421235E-003	0
1.631542558783753E+003	9.3173962E-003	-3.4598254E-003	0
1.641542558531131E+003	9.3555627E-003	-3.3755195E-003	0
1.651542558278510E+003	9.2410613E-003	-3.3969143E-003	0
1.661542558025889E+003	9.1838110E-003	-3.3885732E-003	0
1.671542557773268E+003	9.2792287E-003	-3.3427272E-003	0
1.681542557520646E+003	9.2219785E-003	-3.2893035E-003	0
1.691542557268025E+003	9.1647273E-003	-3.2789884E-003	0
1.701542557015404E+003	9.2792287E-003	-3.2599496E-003	0
1.711542556762783E+003	9.2028948E-003	-3.2521177E-003	0
1.721542556510161E+003	9.2028948E-003	-3.1915628E-003	0
1.731542556257540E+003	9.2792287E-003	-3.1772999E-003	0
1.741542556004919E+003	9.2601450E-003	-3.1399222E-003	0
1.751542555752298E+003	9.1647273E-003	-3.1289705E-003	0
1.761542555499676E+003	9.2601450E-003	-3.0991705E-003	0
1.771542555247055E+003	9.2410613E-003	-3.0344769E-003	0
1.781542554994434E+003	9.2219785E-003	-3.0466386E-003	0
1.791542554741813E+003	9.2219785E-003	-3.0381698E-003	0
1.801542554489191E+003	9.2983125E-003	-3.0367691E-003	0
1.811542554236570E+003	9.1647273E-003	-2.9805440E-003	0
1.821542553983949E+003	9.3364790E-003	-2.9846830E-003	0
1.831542553731328E+003	9.2028948E-003	-2.9362901E-003	0
1.841542553478706E+003	9.1074770E-003	-2.9268661E-003	0
1.851542553226085E+003	9.1647273E-003	-2.8987858E-003	0
1.861542552973464E+003	9.2601450E-003	-2.8827393E-003	0
1.871542552720843E+003	9.1456445E-003	-2.8991040E-003	0
1.881542552468221E+003	9.1838110E-003	-2.8565053E-003	0
1.891542552215600E+003	9.2792287E-003	-2.8524941E-003	0
1.901542551962979E+003	9.2219785E-003	-2.7818149E-003	0
1.911542551710358E+003	9.2219785E-003	-2.7827700E-003	0
1.921542551457736E+003	9.2028948E-003	-2.7835341E-003	0
1.931542551205115E+003	9.2410613E-003	-2.7435459E-003	0
1.941542550952494E+003	9.2601450E-003	-2.7373696E-003	0
1.951542550699873E+003	9.2983125E-003	-2.6889767E-003	0
1.961542550447251E+003	9.2219785E-003	-2.6949621E-003	0
1.971542550194630E+003	9.2983125E-003	-2.6955989E-003	0
1.981542549942009E+003	9.2028948E-003	-2.6434490E-003	0
1.991542549689388E+003	9.1647273E-003	-2.6484155E-003	0
2.001542549436766E+003	9.2219785E-003	-2.6074727E-003	0
2.011542549184145E+003	9.1456445E-003	-2.5870968E-003	0
2.021542548931524E+003	9.2219785E-003	-2.5886248E-003	0
2.031542548678903E+003	9.2792287E-003	-2.5518208E-003	0
2.041542548426281E+003	9.1838110E-003	-2.5488918E-003	0
2.051542548173660E+003	9.2792287E-003	-2.5250774E-003	0
2.061542547921039E+003	9.2410613E-003	-2.4889100E-003	0
2.071542547668418E+003	9.2601450E-003	-2.4871272E-003	0
2.081542547415796E+003	9.2410613E-003	-2.4649047E-003	0
2.091542547163175E+003	9.3364790E-003	-2.4703806E-003	0
2.101542546910554E+003	9.2028948E-003	-2.4733099E-003	0
2.111542546657933E+003	9.2601450E-003	-2.4513421E-003	0
2.121542546405311E+003	9.1456445E-003	-2.4460568E-003	0
2.131542546152690E+003	9.2219785E-003	-2.4119271E-003	0
2.141542545900069E+003	9.2219785E-003	-2.3907232E-003	0
2.151542545647448E+003	9.3364790E-003	-2.3816815E-003	0
2.161542545394826E+003	9.2219785E-003	-2.3380006E-003	0
2.171542545142205E+003	9.1838110E-003	-2.3420758E-003	0
2.181542544889584E+003	9.2219785E-003	-2.3199168E-003	0
2.191542544636963E+003	9.2410613E-003	-2.3184523E-003	0
2.201542544384341E+003	9.2410613E-003	-2.3034888E-003	0
2.211542544131720E+003	9.2219785E-003	-2.2689770E-003	0
2.221542543879099E+003	9.2219785E-003	-2.2897986E-003	0
2.231542543626478E+003	9.2028948E-003	-2.2726064E-003	0
2.241542543373856E+003	9.1074770E-003	-2.2742620E-003	0
2.251542543121235E+003	9.2028948E-003	-2.2943832E-003	0
2.261542542868614E+003	9.2028948E-003	-2.1968333E-003	0
2.271542542615993E+003	9.2410613E-003	-2.2151079E-003	0
2.281542542363371E+003	9.1838110E-003	-2.1979793E-003	0
2.291542542110750E+003	9.1456445E-003	-2.1762024E-003	0
2.301542541858129E+003	9.1456445E-003	-2.1616844E-003	0
2.311542541605508E+003	9.2601450E-003	-2.1467847E-003	0
2.321542541352886E+003	9.2219785E-003	-2.1492681E-003	0
2.331542541100265E+003	9.3173962E-003	-2.1861997E-003	0
2.341542540847644E+003	9.1647273E-003	-2.1234797E-003	0
2.351542540595023E+003	9.2792287E-003	-2.1451928E-003	0
2.361542540342401E+003	9.2601450E-003	-2.1244984E-003	0
2.371542540089780E+003	9.2028948E-003	-2.1061602E-003	0
2.381542539837159E+003	9.2792287E-003	-2.1035494E-003	0
2.391542539584538E+003	9.2601450E-003	-2.0729853E-003	0
2.401542539331916E+003	9.2410613E-003	-2.0453504E-003	0
2.411542539079295E+003	9.3364790E-003	-2.0440770E-003	0
2.421542538826674E+003	9.2028948E-003	-2.0363086E-003	0
2.431542538574053E+003	9.2410613E-003	-2.0421031E-003	0
2.441542538321431E+003	9.1647273E-003	-2.0211539E-003	0
2.451542538068810E+003	9.2601450E-003	-2.0055536E-003	0
2.461542537816189E+003	9.2792287E-003	-2.0150412E-003	0
2.471542537563568E+003	9.2983125E-003	-1.9784917E-003	0
2.481542537310947E+003	9.1074770E-003	-1.9608538E-003	0
2.491542537058325E+003	9.2410613E-003	-1.9721878E-003	0
2.501542536805704E+003	9.2792287E-003	-1.9440436E-003	0
2.511542536553083E+003	9.2601450E-003	-1.9249412E-003	0
2.521542536300462E+003	9.3555627E-003	-1.9504747E-003	0
2.531542536047840E+003	9.2792287E-003	-1.9143075E-003	0
2.541542535795219E+003	9.2028948E-003	-1.9106780E-003	0
2.551542535542598E+003	9.1647273E-003	-1.8742558E-003	0
2.561542535289977E+003	9.2983125E-003	-1.8731096E-003	0
2.571542535037355E+003	9.2410613E-003	-1.8761024E-003	0
2.581542534784734E+003	9.2792287E-003	-1.8867361E-003	0
2.591542534532113E+003	9.2028948E-003	-1.8508234E-003	0
2.601542534279492E+003	9.2410613E-003	-1.8378338E-003	0
2.611542534026870E+003	9.2792287E-003	-1.8393621E-003	0
2.621542533774249E+003	9.2792287E-003	-1.8605021E-003	0
2.631542533521628E+003	9.2983125E-003	-1.8243983E-003	0
2.641542533269007E+003	9.3364790E-003	-1.8397440E-003	0
2.651542533016385E+003	9.2410613E-003	-1.8350321E-003	0
2.661542532763764E+003	9.2219785E-003	-1.7840920E-003	0
2.671542532511143E+003	9.2601450E-003	-1.8135738E-003	0
2.681542532258522E+003	9.3173962E-003	-1.7787433E-003	0
2.691542532005900E+003	9.2410613E-003	-1.7989284E-003	0
2.701542531753279E+003	9.2028948E-003	-1.7563298E-003	0
2.711542531500658E+003	9.2601450E-003	-1.7782340E-003	0
2.721542531248037E+003	9.2792287E-003	-1.7816088E-003	0
2.731542530995415E+003	9.2792287E-003	-1.7895681E-003	0
2.741542530742794E+003	9.2792287E-003	-1.7407294E-003	0
2.751542530490173E+003	9.1074770E-003	-1.7723123E-003	0
2.761542530237552E+003	9.2219785E-003	-1.7299048E-003	0
2.771542529984930E+003	9.2601450E-003	-1.7427035E-003	0
2.781542529732309E+003	9.2792287E-003	-1.7210538E-003	0
2.791542529479688E+003	9.2792287E-003	-1.7139860E-003	0
2.801542529227067E+003	9.2219785E-003	-1.7284403E-003	0
2.811542528974445E+003	9.2983125E-003	-1.6705598E-003	0
2.821542528721824E+003	9.2601450E-003	-1.6844409E-003	0
2.831542528469203E+003	9.3364790E-003	-1.7098472E-003	0
2.841542528216582E+003	9.1647273E-003	-1.6897896E-003	0
2.851542527963960E+003	9.2601450E-003	-1.6477004E-003	0
2.861542527711339E+003	9.2410613E-003	-1.6477004E-003	0
2.871542527458718E+003	9.1838110E-003	-1.6617725E-003	0
2.881542527206097E+003	9.1456445E-003	-1.6547047E-003	0
2.891542526953475E+003	9.2410613E-003	-1.6299350E-003	0
2.901542526700854E+003	9.2792287E-003	-1.6012178E-003	0
2.911542526448233E+003	9.2601450E-003	-1.5919211E-003	0
2.921542526195612E+003	9.1838110E-003	-1.6315907E-003	0
2.931542525942990E+003	9.2601450E-003	-1.6146532E-003	0
2.941542525690369E+003	9.2028948E-003	-1.5870818E-003	0
2.951542525437748E+003	9.3364790E-003	-1.6035736E-003	0
2.961542525185127E+003	9.2410613E-003	-1.6086041E-003	0
2.971542524932505E+003	9.3173962E-003	-1.6117240E-003	0
2.981542524679884E+003	9.1456445E-003	-1.5854263E-003	0
2.991542524427263E+003	9.1838110E-003	-1.5709721E-003	0
3.001542524174642E+003	9.2983125E-003	-1.5755568E-003	0
3.011542523922020E+003	9.2028948E-003	-1.5625671E-003	0
3.021542523669399E+003	9.2028948E-003	-1.5813512E-003	0
3.031542523416778E+003	9.2028948E-003	-1.5536526E-003	0
3.041542523164157E+003	9.2219785E-003	-1.5511056E-003	0
3.051542522911535E+003	9.1647273E-003	-1.5499594E-003	0
3.061542522658914E+003	9.2601450E-003	-1.5004841E-003	0
3.071542522406293E+003	9.2028948E-003	-1.5197138E-003	0
3.081542522153672E+003	9.2792287E-003	-1.5115635E-003	0
3.091542521901050E+003	9.2219785E-003	-1.4980007E-003	0
3.101542521648429E+003	9.2219785E-003	-1.4754599E-003	0
3.111542521395808E+003	9.2219785E-003	-1.4986375E-003	0
3.121542521143187E+003	9.1838110E-003	-1.4915696E-003	0
3.131542520890565E+003	9.1838110E-003	-1.5116271E-003	0
3.141542520637944E+003	9.2410613E-003	-1.4791531E-003	0
3.151542520385323E+003	9.2410613E-003	-1.4818273E-003	0
3.161542520132702E+003	9.2792287E-003	-1.4653355E-003	0
3.171542519880080E+003	9.1838110E-003	-1.4497987E-003	0
3.181542519627459E+003	9.2028948E-003	-1.4827825E-003	0
3.191542519374838E+003	9.1647273E-003	-1.4650808E-003	0
3.201542519122217E+003	9.2410613E-003	-1.4616423E-003	0
3.211542518869595E+003	9.2219785E-003	-1.4159874E-003	0
3.221542518616974E+003	9.2601450E-003	-1.4238831E-003	0
3.231542518364353E+003	9.2601450E-003	-1.4306327E-003	0
3.241542518111732E+003	9.2410613E-003	-1.4140134E-003	0
3.251542517859110E+003	9.1265608E-003	-1.4371910E-003	0
3.261542517606489E+003	9.2410613E-003	-1.4306327E-003	0
3.271542517353868E+003	9.1838110E-003	-1.4199989E-003	0
3.281542517101247E+003	9.3173962E-003	-1.4152870E-003	0
3.291542516848625E+003	9.3364790E-003	-1.4063725E-003	0
3.301542516596004E+003	9.2028948E-003	-1.4240105E-003	0
3.311542516343383E+003	9.1074770E-003	-1.3893077E-003	0
3.321542516090762E+003	9.1456445E-003	-1.3512938E-003	0
3.331542515838140E+003	9.2792287E-003	-1.3856145E-003	0
3.341542515585519E+003	9.1838110E-003	-1.3788650E-003	0
3.351542515332898E+003	9.1456445E-003	-1.3390045E-003	0
3.361542515080277E+003	9.2601450E-003	-1.3763179E-003	0
3.371542514827655E+003	9.2028948E-003	-1.3506570E-003	0
3.381542514575034E+003	9.2792287E-003	-1.3356933E-003	0
3.391542514322413E+003	9.1838110E-003	-1.3354386E-003	0
3.401542514069792E+003	9.1456445E-003	-1.3710329E-003	0
3.411542513817170E+003	9.1838110E-003	-1.3460723E-003	0
3.421542513564549E+003	9.2028948E-003	-1.3228947E-003	0
3.431542513311928E+003	9.2983125E-003	-1.3258873E-003	0
3.441542513059307E+003	9.2410613E-003	-1.3124519E-003	0
3.451542512806685E+003	9.2028948E-003	-1.3294532E-003	0
3.461542512554064E+003	9.2028948E-003	-1.3128977E-003	0
3.471542512301443E+003	9.2601450E-003	-1.2875552E-003	0
3.481542512048822E+003	9.2410613E-003	-1.3205386E-003	0
3.491542511796200E+003	9.2601450E-003	-1.3281796E-003	0
3.501542511543579E+003	9.2983125E-003	-1.3255691E-003	0
3.511542511290958E+003	9.1647273E-003	-1.2897836E-003	0
3.521542511038337E+003	9.3173962E-003	-1.2818880E-003	0
3.531542510785715E+003	9.2410613E-003	-1.2674337E-003	0
3.541542510533094E+003	9.2601450E-003	-1.2632312E-003	0
3.551542510280473E+003	9.1647273E-003	-1.2790863E-003	0
3.561542510027852E+003	9.1838110E-003	-1.2659694E-003	0
3.571542509775230E+003	9.2219785E-003	-1.2451477E-003	0
3.581542509522609E+003	9.2410613E-003	-1.2699170E-003	0
3.591542509269988E+003	9.2410613E-003	-1.2809328E-003	0
3.601542509017367E+003	9.2219785E-003	-1.2474399E-003	0
3.611542508764745E+003	9.2410613E-003	-1.2490954E-003	0
3.621542508512124E+003	9.2601450E-003	-1.2397990E-003	0
3.631542508259503E+003	9.2983125E-003	-1.2430464E-003	0
3.641542508006882E+003	9.3173962E-003	-1.2398626E-003	0
3.651542507754260E+003	9.0883933E-003	-1.2391622E-003	0
3.661542507501639E+003	9.1647273E-003	-1.2433646E-003	0
3.671542507249018E+003	9.2410613E-003	-1.2554629E-003	0
3.681542506996397E+003	9.3173962E-003	-1.2265545E-003	0
3.691542506743775E+003	9.1265608E-003	-1.2324763E-003	0
3.701542506491154E+003	9.2410613E-003	-1.2103175E-003	0
3.711542506238533E+003	9.1456445E-003	-1.2432374E-003	0
3.721542505985912E+003	9.2792287E-003	-1.1668275E-003	0
3.731542505733290E+003	9.2601450E-003	-1.2348323E-003	0
3.741542505480669E+003	9.2601450E-003	-1.1719214E-003	0
3.751542505228048E+003	9.2028948E-003	-1.2047139E-003	0
3.761542504975427E+003	9.1074770E-003	-1.1864393E-003	0
3.771542504722805E+003	9.3173962E-003	-1.1773339E-003	0
3.781542504470184E+003	9.2410613E-003	-1.1998747E-003	0
3.791542504217563E+003	9.2028948E-003	-1.2150293E-003	0
3.801542503964942E+003	9.3364790E-003	-1.2106358E-003	0
3.811542503712320E+003	9.2792287E-003	-1.1489984E-003	0
3.821542503459699E+003	9.1456445E-003	-1.1950354E-003	0
3.831542503207078E+003	9.2028948E-003	-1.1604599E-003	0
3.841542502954457E+003	9.2601450E-003	-1.1989833E-003	0
3.851542502701835E+003	9.2028948E-003	-1.1654902E-003	0
3.861542502449214E+003	9.1838110E-003	-1.1616061E-003	0
3.871542502196593E+003	9.2219785E-003	-1.1617334E-003	0
3.881542501943972E+003	9.2601450E-003	-1.1908329E-003	0
3.891542501691350E+003	9.2410613E-003	-1.1184345E-003	0
3.901542501438729E+003	9.3173962E-003	-1.1647898E-003	0
3.911542501186108E+003	9.1838110E-003	-1.1645352E-003	0
3.921542500933487E+003	9.1838110E-003	-1.1100931E-003	0
3.931542500680865E+003	9.2792287E-003	-1.1229553E-003	0
3.941542500428244E+003	9.1456445E-003	-1.1447959E-003	0
3.951542500175623E+003	9.2219785E-003	-1.1241015E-003	0
3.961542499923002E+003	9.2601450E-003	-1.1184345E-003	0
3.971542499670380E+003	9.2028948E-003	-1.1135315E-003	0
3.981542499417759E+003	9.2028948E-003	-1.1123854E-003	0
3.991542499165138E+003	9.2410613E-003	-1.1049991E-003	0
4.001542498912517E+003	9.1265608E-003	-1.1172884E-003	0
4.011542498659896E+003	9.2601450E-003	-1.1239742E-003	0
4.021542498407274E+003	9.1838110E-003	-1.0990137E-003	0
4.031542498154653E+003	9.1838110E-003	-1.1197716E-003	0
4.041542497902032E+003	9.1838110E-003	-1.1030887E-003	0
4.051542497649411E+003	9.2601450E-003	-1.1124490E-003	0
4.061542497396789E+003	9.2601450E-003	-1.0818214E-003	0
4.071542497144168E+003	9.2028948E-003	-1.0876795E-003	0
4.081542496891547E+003	9.2219785E-003	-1.0801658E-003	0
4.091542496638926E+003	9.2601450E-003	-1.0710603E-003	0
4.101542496459224E+003	9.2601450E-003	-1.0865333E-003	0
4.111542496338152E+003	9.2410613E-003	-1.0584528E-003	0
4.121542496217080E+003	9.1838110E-003	-1.0750082E-003	0
4.131542496096008E+003	9.2601450E-003	-1.0910542E-003	0
4.141542495974936E+003	9.1074770E-003	-1.0644381E-003	0
4.151542495853864E+003	9.1456445E-003	-1.0749445E-003	0
4.161542495732792E+003	9.1838110E-003	-1.0420246E-003	0
4.171542495611720E+003	9.2028948E-003	-1.0733526E-003	0
4.181542495490648E+003	9.2219785E-003	-1.0573703E-003	0
4.191542495369577E+003	9.2410613E-003	-1.0740530E-003	0
4.201542495248505E+003	9.1456445E-003	-1.0652659E-003	0
4.211542495127433E+003	9.2410613E-003	-1.0407511E-003	0
4.221542495006361E+003	9.2410613E-003	-1.0315819E-003	0
4.231542494885289E+003	9.2028948E-003	-1.0499839E-003	0
4.241542494764217E+003	9.2219785E-003	-1.0584528E-003	0
4.251542494643145E+003	9.2028948E-003	-1.0127978E-003	0
4.261542494522073E+003	9.3364790E-003	-1.0415788E-003	0
4.271542494401001E+003	9.2219785E-003	-1.0334920E-003	0
4.281542494279929E+003	9.2219785E-003	-1.0268699E-003	0
4.291542494158857E+003	9.2028948E-003	-1.0275067E-003	0
4.301542494037785E+003	9.2792287E-003	-1.0193562E-003	0
4.311542493916713E+003	9.1838110E-003	-9.9789782E-004	0
4.321542493795641E+003	9.2601450E-003	-1.0356570E-003	0
4.331542493674569E+003	9.2219785E-003	-1.0070032E-003	0
4.341542493553497E+003	9.2028948E-003	-1.0241319E-003	0
4.351542493432426E+003	9.2410613E-003	-1.0248959E-003	0
4.361542493311354E+003	9.1647273E-003	-9.8529016E-004	0
4.371542493190282E+003	9.2219785E-003	-1.0357844E-003	0
4.381542493069210E+003	9.2983125E-003	-9.9274016E-004	0
4.391542492948138E+003	9.1838110E-003	-9.9133921E-004	0
4.401542492827066E+003	9.2983125E-003	-9.6383167E-004	0
4.411542492705994E+003	9.2792287E-003	-9.9942600E-004	0
4.421542492584922E+003	9.2219785E-003	-9.8904700E-004	0
4.431542492463850E+003	9.1838110E-003	-9.8675466E-004	0
4.441542492342778E+003	9.1456445E-003	-1.0070032E-003	0
4.451542492221706E+003	9.2601450E-003	-9.8847388E-004	0
4.461542492100634E+003	9.2601450E-003	-9.8898332E-004	0
4.471542491979562E+003	9.2028948E-003	-9.9490501E-004	0
4.481542491858490E+003	9.1456445E-003	-9.7446539E-004	0
4.491542491737418E+003	9.2601450E-003	-9.6045691E-004	0
4.501542491616347E+003	9.2028948E-003	-9.7179104E-004	0
4.511542491495275E+003	9.2792287E-003	-9.8153332E-004	0
4.521542491374203E+003	9.1838110E-003	-9.5765520E-004	0
4.531542491253131E+003	9.2601450E-003	-9.8000513E-004	0
4.541542491132059E+003	9.1456445E-003	-9.7542047E-004	0
4.551542491010987E+003	9.2028948E-003	-9.7790384E-004	0
4.561542490889915E+003	9.2410613E-003	-9.6313126E-004	0
4.571542490768843E+003	9.1838110E-003	-9.5338904E-004	0
4.581542490647771E+003	9.2792287E-003	-9.4485655E-004	0
4.591542490526699E+003	9.1838110E-003	-9.6083904E-004	0
4.601542490405627E+003	9.2028948E-003	-9.3123014E-004	0
4.611542490284555E+003	9.2410613E-003	-9.2104211E-004	0
4.621542490163483E+003	9.2028948E-003	-9.4485655E-004	0
4.631542490042411E+003	9.1838110E-003	-9.4702147E-004	0
4.641542489921339E+003	9.1265608E-003	-9.4606634E-004	0
4.651542489800268E+003	9.1074770E-003	-9.5364370E-004	0
4.661542489679196E+003	9.3555627E-003	-9.3154848E-004	0
4.671542489558124E+003	9.1647273E-003	-9.3186687E-004	0
4.681542489437052E+003	9.1838110E-003	-8.9417130E-004	0
4.691542489315980E+003	9.2601450E-003	-9.4186381E-004	0
4.701542489194908E+003	9.3173962E-003	-8.9410762E-004	0
4.711542489073836E+003	9.1456445E-003	-9.2740968E-004	0
4.721542488952764E+003	9.3555627E-003	-9.3084812E-004	0
4.731542488831692E+003	9.2028948E-003	-9.4670319E-004	0
4.741542488710620E+003	9.2601450E-003	-9.3785231E-004	0
4.751542488589548E+003	9.1265608E-003	-9.1085414E-004	0
4.761542488468476E+003	9.2410613E-003	-9.0213068E-004	0
4.771542488347404E+003	9.2983125E-003	-9.2046906E-004	0
4.781542488226332E+003	9.2028948E-003	-9.1556611E-004	0
4.791542488105260E+003	9.3364790E-003	-9.1989595E-004	0
4.801542487984188E+003	9.1647273E-003	-9.0493233E-004	0
4.811542487863117E+003	9.2219785E-003	-8.8054489E-004	0
4.821542487742045E+003	9.1838110E-003	-9.1964123E-004	0
4.831542487620973E+003	9.2219785E-003	-8.9423498E-004	0
4.841542487499901E+003	9.2601450E-003	-9.1161818E-004	0
4.851542487378829E+003	9.2410613E-003	-9.1079046E-004	0
4.861542487257757E+003	9.1647273E-003	-8.8054489E-004	0
4.871542487136685E+003	9.2028948E-003	-8.8169100E-004	0
4.881542487015613E+003	9.3173962E-003	-8.9595414E-004	0
4.891542486894541E+003	9.2792287E-003	-8.8525680E-004	0
4.901542486773469E+003	9.1265608E-003	-8.7105739E-004	0
4.911542486652397E+003	9.2219785E-003	-9.0092083E-004	0
4.921542486531325E+003	9.1647273E-003	-9.1129990E-004	0
4.931542486410253E+003	9.1074770E-003	-9.0945332E-004	0
4.941542486289181E+003	9.2219785E-003	-8.8060857E-004	0
4.951542486168109E+003	9.2601450E-003	-8.9047820E-004	0
4.961542486047038E+003	9.2983125E-003	-8.5431075E-004	0
4.971542485925966E+003	9.2028948E-003	-8.5526588E-004	0
4.981542485804894E+003	9.2028948E-003	-8.3813735E-004	0
4.991542485683822E+003	9.2028948E-003	-8.6908339E-004	0
5.001542485562750E+003	9.1838110E-003	-8.6831930E-004	0
5.011542485441678E+003	9.1647273E-003	-8.5087231E-004	0
5.021542485320606E+003	9.1074770E-003	-8.9480798E-004	0
5.031542485199534E+003	9.2792287E-003	-8.5456547E-004	0
5.041542485078462E+003	9.1265608E-003	-8.3699124E-004	0
5.051542484957390E+003	9.2983125E-003	-8.8761275E-004	0
5.061542484836318E+003	9.1838110E-003	-8.5488387E-004	0
5.071542484715246E+003	9.2219785E-003	-8.8143628E-004	0
5.081542484594174E+003	9.1838110E-003	-8.6870132E-004	0
5.091542484473102E+003	9.2219785E-003	-8.4342237E-004	0
5.101542484352030E+003	9.2410613E-003	-8.7755220E-004	0
5.111542484230959E+003	9.2028948E-003	-8.6507184E-004	0
5.121542484109887E+003	9.2792287E-003	-8.4463216E-004	0
5.131542483988815E+003	9.1838110E-003	-8.5685781E-004	0
5.141542483867743E+003	9.1456445E-003	-8.6443510E-004	0
5.151542483746671E+003	9.2410613E-003	-8.3247037E-004	0
5.161542483625599E+003	9.1838110E-003	-8.4826164E-004	0
5.171542483504527E+003	9.2219785E-003	-8.0750970E-004	0
5.181542483383455E+003	9.2219785E-003	-8.2425628E-004	0
5.191542483262383E+003	9.2028948E-003	-8.1922591E-004	0
5.201542483141311E+003	9.2028948E-003	-8.6488086E-004	0
5.211542483020239E+003	9.2219785E-003	-8.4444118E-004	0
5.221542482899167E+003	9.2028948E-003	-8.4278570E-004	0
5.231542482778095E+003	9.2219785E-003	-9.7058126E-004	0
5.241542482657023E+003	9.2028948E-003	-9.8076917E-004	0
5.251542482535951E+003	9.1838110E-003	-1.0378858E-003	0
5.261542482414879E+003	9.2983125E-003	-1.0655844E-003	0
5.271542482293808E+003	9.1647273E-003	-1.0111422E-003	0
5.281542482172736E+003	9.2219785E-003	-9.7121793E-004	0
5.291542482051664E+003	9.2792287E-003	-9.1703061E-004	0
5.301542481930592E+003	9.1647273E-003	-8.8977779E-004	0
5.311542481809520E+003	9.2601450E-003	-8.6532661E-004	0
5.321542481688448E+003	9.2219785E-003	-8.7901670E-004	0
5.331542481567376E+003	9.2219785E-003	-8.3030533E-004	0
5.341542481446304E+003	9.2792287E-003	-8.3221559E-004	0
5.351542481325232E+003	9.2410613E-003	-8.2960498E-004	0
5.361542481204160E+003	9.2792287E-003	-8.1374985E-004	0
5.371542481083088E+003	9.1456445E-003	-8.1445026E-004	0
5.381542480962016E+003	9.1647273E-003	-8.3915622E-004	0
5.391542480840944E+003	9.2410613E-003	-7.9509313E-004	0
5.401542480719872E+003	9.2410613E-003	-7.6382875E-004	0
5.411542480598800E+003	9.2219785E-003	-8.0795545E-004	0
5.421542480477729E+003	9.2028948E-003	-8.1043877E-004	0
5.431542480356657E+003	9.2410613E-003	-8.1515068E-004	0
5.441542480235585E+003	9.1838110E-003	-8.0521737E-004	0
5.451542480114513E+003	9.2219785E-003	-8.4087538E-004	0
5.461542479993441E+003	9.1838110E-003	-8.0763712E-004	0
5.471542479872369E+003	9.2601450E-003	-7.9795846E-004	0
5.481542479751297E+003	9.1456445E-003	-7.8592391E-004	0
5.491542479630225E+003	9.2028948E-003	-7.9515675E-004	0
5.501542479509153E+003	9.2028948E-003	-7.9821318E-004	0
5.511542479388081E+003	9.2028948E-003	-8.1795244E-004	0
5.521542479267009E+003	9.2601450E-003	-7.9948665E-004	0
5.531542479145937E+003	9.1647273E-003	-7.8598759E-004	0
5.541542479024865E+003	9.2792287E-003	-7.4587244E-004	0
5.551542478903793E+003	9.2219785E-003	-7.9267344E-004	0
5.561542478782721E+003	9.2219785E-003	-7.8172132E-004	0
5.571542478661650E+003	9.1838110E-003	-7.8815257E-004	0
5.581542478540578E+003	9.2219785E-003	-7.9452002E-004	0
5.591542478419506E+003	9.2792287E-003	-7.7904697E-004	0
5.601542478298434E+003	9.3364790E-003	-7.7707315E-004	0
5.611542478177362E+003	9.2028948E-003	-7.5714290E-004	0
5.621542478056290E+003	9.2219785E-003	-7.8445941E-004	0
5.631542477935218E+003	9.3555627E-003	-7.4778270E-004	0
5.641542477814146E+003	9.3173962E-003	-7.7949272E-004	0
5.651542477693074E+003	9.2792287E-003	-7.5160316E-004	0
5.661542477572002E+003	9.1838110E-003	-7.7102403E-004	0
5.671542477450930E+003	9.2410613E-003	-7.2657893E-004	0
5.681542477329858E+003	9.2601450E-003	-7.4988394E-004	0
5.691542477208786E+003	9.2219785E-003	-7.6522958E-004	0
5.701542477087714E+003	9.2601450E-003	-7.7446242E-004	0
5.711542476966642E+003	9.2410613E-003	-7.5115741E-004	0
5.721542476845570E+003	9.2410613E-003	-7.6293730E-004	0
5.731542476724499E+003	9.1456445E-003	-7.3606649E-004	0
5.741542476603427E+003	9.2028948E-003	-7.4791000E-004	0
5.751542476482355E+003	9.2792287E-003	-7.3027203E-004	0
5.761542476361283E+003	9.1456445E-003	-7.8923505E-004	0
5.771542476240211E+003	9.0883933E-003	-7.4740063E-004	0
5.781542476119139E+003	9.1265608E-003	-7.5504160E-004	0
5.791542475998067E+003	9.2601450E-003	-7.7726413E-004	0
5.801542475876995E+003	9.1456445E-003	-7.8044785E-004	0
5.811542475755923E+003	9.3173962E-003	-7.4332539E-004	0
5.821542475634851E+003	9.2983125E-003	-7.3740364E-004	0
5.831542475513779E+003	9.1456445E-003	-7.6936849E-004	0
5.841542475392707E+003	9.2219785E-003	-7.2810712E-004	0
5.851542475271635E+003	9.1647273E-003	-7.5109373E-004	0
5.861542475150563E+003	9.3173962E-003	-7.3905918E-004	0
5.871542475029491E+003	9.1265608E-003	-7.5956254E-004	0
5.881542474908420E+003	9.3555627E-003	-7.6153647E-004	0
5.891542474787348E+003	9.2601450E-003	-7.3893182E-004	0
5.901542474666276E+003	9.1838110E-003	-7.2142127E-004	0
5.911542474545204E+003	9.1838110E-003	-7.2084821E-004	0
5.921542474424132E+003	9.2028948E-003	-7.3141820E-004	0
5.931542474303060E+003	9.2219785E-003	-7.3606649E-004	0
5.941542474181988E+003	9.2028948E-003	-7.3230971E-004	0
5.951542474060916E+003	9.2028948E-003	-7.2078448E-004	0
5.961542473939844E+003	9.3173962E-003	-7.2485971E-004	0
5.971542473818772E+003	9.1647273E-003	-6.9423206E-004	0
5.981542473697700E+003	9.2219785E-003	-7.3205499E-004	0
5.991542473576628E+003	9.1265608E-003	-6.9703377E-004	0
6.001542473455556E+003	9.2601450E-003	-7.6631212E-004	0
6.011542473334484E+003	9.1265608E-003	-7.1772811E-004	0
6.021542473213412E+003	9.2410613E-003	-7.1002345E-004	0
6.031542473092341E+003	9.1838110E-003	-6.8767351E-004	0
6.041542472971269E+003	9.2028948E-003	-7.2409556E-004	0
6.051542472850197E+003	9.2601450E-003	-6.9321325E-004	0
6.061542472729125E+003	9.1647273E-003	-7.3727628E-004	0
6.071542472608053E+003	9.2410613E-003	-6.7742186E-004	0
6.081542472486981E+003	9.3173962E-003	-7.3135458E-004	0
6.091542472365909E+003	9.2410613E-003	-7.3199131E-004	0
6.101542472244837E+003	9.2028948E-003	-6.8894704E-004	0
6.111542472123765E+003	9.2028948E-003	-7.0652133E-004	0
6.121542472002693E+003	9.2601450E-003	-7.2810712E-004	0
6.131542471881621E+003	9.1647273E-003	-7.2804344E-004	0
6.141542471760549E+003	9.3555627E-003	-7.1728235E-004	0
6.151542471639477E+003	9.2983125E-003	-7.0588459E-004	0
6.161542471518405E+003	9.2410613E-003	-6.7417440E-004	0
6.171542471397333E+003	9.2601450E-003	-6.9728843E-004	0
6.181542471276261E+003	9.2792287E-003	-7.2734302E-004	0
6.191542471155190E+003	9.2028948E-003	-6.7869539E-004	0
6.201542471034118E+003	9.2028948E-003	-7.1594521E-004	0
6.211542470913046E+003	9.2601450E-003	-6.7933206E-004	0
6.221542470791974E+003	9.1456445E-003	-7.2377722E-004	0
6.231542470670902E+003	9.2028948E-003	-7.0244609E-004	0
6.241542470549830E+003	9.1456445E-003	-6.9327693E-004	0
6.251542470428758E+003	9.1074770E-003	-6.9321325E-004	0
6.261542470307686E+003	9.2792287E-003	-6.8066927E-004	0
6.271542470186614E+003	9.2028948E-003	-7.0002652E-004	0
6.281542470065542E+003	9.2028948E-003	-6.8238843E-004	0
6.291542469944470E+003	9.3173962E-003	-7.2371354E-004	0
6.301542469823398E+003	9.2410613E-003	-6.9264014E-004	0
6.311542469702326E+003	9.2028948E-003	-6.8398035E-004	0
6.321542469581254E+003	9.2983125E-003	-6.7716715E-004	0
6.331542469460182E+003	9.1647273E-003	-6.8710046E-004	0
6.341542469339111E+003	9.2792287E-003	-6.8773719E-004	0
6.351542469218039E+003	9.2601450E-003	-6.8003259E-004	0
6.361542469096967E+003	9.2983125E-003	-6.7665777E-004	0
6.371542468975895E+003	9.1838110E-003	-6.8117864E-004	0
6.381542468854823E+003	9.2601450E-003	-6.9264014E-004	0
6.391542468733751E+003	9.2410613E-003	-6.6653342E-004	0
6.401542468612679E+003	9.2983125E-003	-6.5589976E-004	0
6.411542468491607E+003	9.1838110E-003	-6.9926237E-004	0
6.421542468370535E+003	9.2028948E-003	-6.9951708E-004	0
6.431542468249463E+003	9.2219785E-003	-6.6022959E-004	0
6.441542468128391E+003	9.2028948E-003	-6.9416832E-004	0
6.451542468007319E+003	9.1647273E-003	-6.9155771E-004	0
6.461542467886247E+003	9.2028948E-003	-6.9824356E-004	0
6.471542467765175E+003	9.1456445E-003	-6.8410771E-004	0
6.481542467644103E+003	9.1647273E-003	-6.8888330E-004	0
6.491542467523032E+003	9.3173962E-003	-6.9066632E-004	0
6.501542467401960E+003	9.2219785E-003	-6.2196102E-004	0
6.511542467280888E+003	9.1456445E-003	-6.9423206E-004	0
6.521542467159816E+003	9.3746465E-003	-6.7538430E-004	0
6.531542467038744E+003	9.2410613E-003	-6.8614533E-004	0
6.541542466917672E+003	9.1838110E-003	-6.5246131E-004	0
6.551542466796600E+003	9.2792287E-003	-6.8117864E-004	0
6.561542466675528E+003	9.3364790E-003	-6.6392281E-004	0
6.571542466554456E+003	9.1456445E-003	-6.6073908E-004	0
6.581542466433384E+003	9.3173962E-003	-6.7595736E-004	0
6.591542466312312E+003	9.1838110E-003	-6.7576632E-004	0
6.601542466191240E+003	9.2219785E-003	-6.8525388E-004	0
6.611542466070168E+003	9.2792287E-003	-6.5602706E-004	0
6.621542465949096E+003	9.3173962E-003	-6.5386214E-004	0
6.631542465828024E+003	9.2601450E-003	-6.7850429E-004	0
6.641542465706953E+003	9.1647273E-003	-6.7799492E-004	0
6.651542465585881E+003	9.1647273E-003	-6.4475666E-004	0
6.661542465464809E+003	9.2983125E-003	-6.4462930E-004	0
6.671542465343737E+003	9.2410613E-003	-6.6010229E-004	0
6.681542465222665E+003	9.2601450E-003	-6.6869846E-004	0
6.691542465101593E+003	9.2410613E-003	-6.4698525E-004	0
6.701542464980521E+003	9.0883933E-003	-6.9187611E-004	0
6.711542464859449E+003	9.2410613E-003	-6.4965960E-004	0
6.721542464738377E+003	9.1647273E-003	-6.2960200E-004	0
6.731542464617305E+003	9.1838110E-003	-6.4965960E-004	0
6.741542464496233E+003	9.2983125E-003	-6.3042977E-004	0
6.751542464375161E+003	9.2410613E-003	-6.5004162E-004	0
6.761542464254089E+003	9.2983125E-003	-6.3609687E-004	0
6.771542464133017E+003	9.0883933E-003	-6.6933513E-004	0
6.781542464011945E+003	9.2601450E-003	-6.5838307E-004	0
6.791542463890873E+003	9.2028948E-003	-6.5392582E-004	0
6.801542463769802E+003	9.2983125E-003	-6.6226727E-004	0
6.811542463648730E+003	9.1647273E-003	-6.5227028E-004	0
6.821542463527658E+003	9.1647273E-003	-6.7570258E-004	0
6.831542463406586E+003	9.2983125E-003	-6.7130907E-004	0
6.841542463285514E+003	9.1647273E-003	-6.3870754E-004	0
6.851542463164442E+003	9.1838110E-003	-6.5583602E-004	0
6.861542463043370E+003	9.2028948E-003	-6.3113018E-004	0
6.871542462922298E+003	9.2028948E-003	-6.0999009E-004	0
6.881542462801226E+003	9.3173962E-003	-6.5997493E-004	0
6.891542462680154E+003	9.2028948E-003	-6.4641220E-004	0
6.901542462559082E+003	9.1265608E-003	-6.1565719E-004	0
6.911542462438010E+003	9.2028948E-003	-6.3119386E-004	0
6.921542462316938E+003	9.2028948E-003	-6.2183366E-004	0
6.931542462195866E+003	9.2219785E-003	-6.4424722E-004	0
6.941542462074794E+003	9.2028948E-003	-6.4501131E-004	0
6.951542461953723E+003	9.1838110E-003	-6.1005383E-004	0
6.961542461832651E+003	9.1456445E-003	-6.1419269E-004	0
6.971542461711579E+003	9.2792287E-003	-6.3157588E-004	0
6.981542461590507E+003	9.1838110E-003	-6.2820117E-004	0
6.991542461469435E+003	9.1647273E-003	-6.3966261E-004	0
7.001542461348363E+003	9.3364790E-003	-6.3265837E-004	0
7.011542461227291E+003	9.1838110E-003	-5.9719145E-004	0
7.021542461106219E+003	9.1074770E-003	-6.5137877E-004	0
7.031542460985147E+003	9.2410613E-003	-6.6640612E-004	0
7.041542460864075E+003	9.2410613E-003	-6.4774934E-004	0
7.051542460743003E+003	9.2410613E-003	-6.1871362E-004	0
7.061542460621931E+003	9.1265608E-003	-6.4736727E-004	0
7.071542460500859E+003	9.1456445E-003	-6.2176998E-004	0
7.081542460379787E+003	9.2601450E-003	-6.2151533E-004	0
7.091542460258715E+003	9.2028948E-003	-6.2597252E-004	0
7.101542460137644E+003	9.2601450E-003	-6.4953219E-004	0
7.111542460016572E+003	9.2028948E-003	-6.2418962E-004	0
7.121542459895500E+003	9.1456445E-003	-6.3125754E-004	0
7.131542459774428E+003	9.1647273E-003	-5.9604534E-004	0
7.141542459653356E+003	9.1647273E-003	-6.3425023E-004	0
7.151542459532284E+003	9.2410613E-003	-6.5246131E-004	0
7.161542459411212E+003	9.1265608E-003	-6.1311020E-004	0
7.171542459290140E+003	9.2028948E-003	-6.0037524E-004	0
7.181542459169068E+003	9.1838110E-003	-5.8795861E-004	0
7.191542459047996E+003	9.1838110E-003	-5.9496285E-004	0
7.201542458926924E+003	9.1838110E-003	-6.2017812E-004	0
7.211542458805852E+003	9.2983125E-003	-5.9247954E-004	0
7.221542458684780E+003	9.1838110E-003	-6.2157901E-004	0
7.231542458563708E+003	9.2028948E-003	-6.1966875E-004	0
7.241542458442636E+003	9.2601450E-003	-6.2654557E-004	0
7.251542458321564E+003	9.2983125E-003	-5.7636976E-004	0
7.261542458200493E+003	9.3173962E-003	-6.2393496E-004	0
7.271542458079421E+003	9.2219785E-003	-6.2820117E-004	0
7.281542457958349E+003	9.1647273E-003	-5.9184275E-004	0
7.291542457837277E+003	9.2028948E-003	-6.2972936E-004	0
7.301542457716205E+003	9.2410613E-003	-6.2552677E-004	0
7.311542457595133E+003	9.1647273E-003	-6.3768867E-004	0
7.321542457474061E+003	9.1647273E-003	-5.8617571E-004	0
7.331542457352989E+003	9.1647273E-003	-6.3221273E-004	0
7.341542457231917E+003	9.2983125E-003	-6.1750377E-004	0
7.351542457110845E+003	9.2028948E-003	-5.9942011E-004	0
7.361542456989773E+003	9.2601450E-003	-6.0935342E-004	0
7.371542456868701E+003	9.2410613E-003	-6.1406533E-004	0
7.381542456747629E+003	9.3364790E-003	-6.1591185E-004	0
7.391542456626557E+003	9.2219785E-003	-5.8528426E-004	0
7.401542456505485E+003	9.3173962E-003	-5.9744617E-004	0
7.411542456384414E+003	9.2410613E-003	-5.9050560E-004	0
7.421542456263342E+003	9.2410613E-003	-6.0177606E-004	0
7.431542456142270E+003	9.2983125E-003	-6.2208838E-004	0
7.441542456021198E+003	9.2219785E-003	-6.0069357E-004	0
7.451542455900126E+003	9.1456445E-003	-6.2552677E-004	0
7.461542455779054E+003	9.1647273E-003	-5.9407140E-004	0
7.471542455657982E+003	9.2219785E-003	-5.7248562E-004	0
7.481542455536910E+003	9.2792287E-003	-6.0502347E-004	0
7.491542455415838E+003	9.1456445E-003	-5.6344375E-004	0
7.501542455294766E+003	9.2028948E-003	-5.9528119E-004	0
7.511542455173694E+003	9.2410613E-003	-5.9470814E-004	0
7.521542455052622E+003	9.2601450E-003	-5.8362866E-004	0
7.531542454931550E+003	9.2219785E-003	-5.9961114E-004	0
7.541542454810478E+003	9.1838110E-003	-5.9604534E-004	0
7.551542454689406E+003	9.2028948E-003	-5.8693980E-004	0
7.561542454568335E+003	9.1647273E-003	-5.6344375E-004	0
7.571542454447263E+003	9.1456445E-003	-5.7707017E-004	0
7.581542454326191E+003	9.2219785E-003	-6.0209446E-004	0
7.591542454205119E+003	9.1838110E-003	-5.8171846E-004	0
7.601542454084047E+003	9.3173962E-003	-5.8592099E-004	0
7.611542453962975E+003	9.3173962E-003	-5.9177913E-004	0
7.621542453841903E+003	9.3173962E-003	-6.1247346E-004	0
7.631542453720831E+003	9.1265608E-003	-5.7859835E-004	0
7.641542453599759E+003	9.2792287E-003	-5.8006292E-004	0
7.651542453478687E+003	9.1838110E-003	-5.8318302E-004	0
7.661542453357615E+003	9.1456445E-003	-5.7828001E-004	0
7.671542453236543E+003	9.1838110E-003	-5.6592713E-004	0
7.681542453115471E+003	9.1647273E-003	-5.6217023E-004	0
7.691542452994399E+003	9.1838110E-003	-5.8044499E-004	0
7.701542452873327E+003	9.3555627E-003	-5.6656380E-004	0
7.711542452752255E+003	9.2792287E-003	-6.0145766E-004	0
7.721542452631184E+003	9.2601450E-003	-5.7942612E-004	0
7.731542452510112E+003	9.1647273E-003	-5.4625154E-004	0
7.741542452389040E+003	9.2410613E-003	-5.7083002E-004	0
7.751542452267968E+003	9.1647273E-003	-5.5140920E-004	0
7.761542452146896E+003	9.2219785E-003	-5.5440189E-004	0
7.771542452025824E+003	9.2410613E-003	-5.5452925E-004	0
7.781542451904752E+003	9.2601450E-003	-5.5325578E-004	0
7.791542451783680E+003	9.2219785E-003	-5.8948679E-004	0
7.801542451662608E+003	9.2410613E-003	-5.5860443E-004	0
7.811542451541536E+003	9.1647273E-003	-6.1903195E-004	0
7.821542451420464E+003	9.1647273E-003	-5.4676092E-004	0
7.831542451299392E+003	9.1838110E-003	-5.5707624E-004	0
7.841542451178320E+003	9.2601450E-003	-5.6726427E-004	0
7.851542451057248E+003	9.2410613E-003	-5.8165478E-004	0
7.861542450936176E+003	9.2792287E-003	-5.2912295E-004	0
7.871542450815105E+003	9.2792287E-003	-5.6605437E-004	0
7.881542450694033E+003	9.1456445E-003	-5.4733397E-004	0
7.891542450572961E+003	9.1838110E-003	-5.4663356E-004	0
7.901542450451889E+003	9.2410613E-003	-5.6834670E-004	0
7.911542450330817E+003	9.1838110E-003	-5.4529641E-004	0
7.921542450209745E+003	9.2219785E-003	-5.6726427E-004	0
7.931542450088673E+003	9.2601450E-003	-5.6573603E-004	0
7.941542449967601E+003	9.2792287E-003	-5.5236433E-004	0
7.951542449846529E+003	9.1838110E-003	-5.6204287E-004	0
7.961542449725457E+003	9.2219785E-003	-5.7605142E-004	0
7.971542449604385E+003	9.1456445E-003	-5.3447165E-004	0
7.981542449483313E+003	9.1647273E-003	-5.6127878E-004	0
7.991542449362241E+003	9.2983125E-003	-5.2765844E-004	0
8.001542449241169E+003	9.2792287E-003	-5.7242194E-004	0
8.011542449120097E+003	9.2028948E-003	-5.5268267E-004	0
8.021542448999026E+003	9.2219785E-003	-5.3931092E-004	0
8.031542448877954E+003	9.1838110E-003	-5.7917146E-004	0
8.041542448756882E+003	9.1456445E-003	-5.3319812E-004	0
8.051542448635810E+003	9.1647273E-003	-5.7904411E-004	0
8.061542448514738E+003	9.2792287E-003	-5.4937159E-004	0
8.071542448393666E+003	9.3364790E-003	-5.5096345E-004	0
8.081542448272594E+003	9.2792287E-003	-5.1517814E-004	0
8.091542448151522E+003	9.2219785E-003	-5.3657294E-004	0
8.101542448030450E+003	9.2410613E-003	-5.2275549E-004	0
8.111542447909378E+003	9.1838110E-003	-5.2415632E-004	0
8.121542447788306E+003	9.2028948E-003	-5.4402289E-004	0
8.131542447667234E+003	9.2028948E-003	-5.1046623E-004	0
8.141542447546162E+003	9.2219785E-003	-5.4567849E-004	0
8.151542447425090E+003	9.2028948E-003	-5.2326487E-004	0
8.161542447304018E+003	9.2219785E-003	-5.2186404E-004	0
8.171542447182946E+003	9.2601450E-003	-5.2613020E-004	0
8.181542447061875E+003	9.1265608E-003	-5.3039647E-004	0
8.191542446940803E+003	9.1647273E-003	-5.3803745E-004	0
8.201542446819745E+003	9.2410613E-003	-5.2218238E-004	0
8.211542446698673E+003	9.3173962E-003	-5.2721269E-004	0
8.221542446577601E+003	9.2219785E-003	-5.2702171E-004	0
8.231542446456529E+003	9.2983125E-003	-5.1193073E-004	0
8.241542446335458E+003	9.2792287E-003	-5.2670331E-004	0
8.251542446214386E+003	9.1838110E-003	-5.4179423E-004	0
8.261542446093314E+003	9.2410613E-003	-5.3154264E-004	0
8.271542445972242E+003	9.1456445E-003	-5.0721876E-004	0
8.281542445851170E+003	9.2601450E-003	-5.4395926E-004	0
8.291542445730098E+003	9.1265608E-003	-5.2148197E-004	0
8.301542445609026E+003	9.2601450E-003	-5.1575125E-004	0
8.311542445487954E+003	9.3555627E-003	-5.1371363E-004	0
8.321542445366882E+003	9.1838110E-003	-5.3708232E-004	0
8.331542445245810E+003	9.2028948E-003	-5.2944134E-004	0
8.341542445124738E+003	9.2792287E-003	-5.3179730E-004	0
8.351542445003666E+003	9.1838110E-003	-5.1829824E-004	0
8.361542444882594E+003	9.3173962E-003	-5.2848621E-004	0
8.371542444761522E+003	9.2601450E-003	-5.1218545E-004	0
8.381542444640450E+003	9.2601450E-003	-5.1307690E-004	0
8.391542444519378E+003	9.2410613E-003	-5.3020549E-004	0
8.401542444398307E+003	9.1838110E-003	-5.0740980E-004	0
8.411542444277235E+003	9.2983125E-003	-5.0728244E-004	0
8.421542444156163E+003	9.2028948E-003	-4.8009324E-004	0
8.431542444035091E+003	9.2028948E-003	-5.2918663E-004	0
8.441542443914019E+003	9.2983125E-003	-5.0314359E-004	0
8.451542443792947E+003	9.1647273E-003	-5.0588162E-004	0
8.461542443671875E+003	9.2028948E-003	-5.2141829E-004	0
8.471542443550803E+003	9.2028948E-003	-5.0435337E-004	0
8.481542443429731E+003	9.3364790E-003	-5.3192466E-004	0
8.491542443308659E+003	9.2219785E-003	-5.0231582E-004	0
8.501542443187587E+003	9.2410613E-003	-5.2173663E-004	0
8.511542443066515E+003	9.2410613E-003	-5.2530243E-004	0
8.521542442945443E+003	9.2983125E-003	-5.0537218E-004	0
8.531542442824371E+003	9.3555627E-003	-5.1479612E-004	0
8.541542442703299E+003	9.2410613E-003	-5.0600898E-004	0
8.551542442582228E+003	9.2410613E-003	-5.1836192E-004	0
8.561542442461156E+003	9.1838110E-003	-4.9429276E-004	0
8.571542442340084E+003	9.1838110E-003	-5.0403498E-004	0
8.581542442219012E+003	9.1456445E-003	-5.0728244E-004	0
8.591542442097940E+003	9.2983125E-003	-4.6684890E-004	0
8.601542441976868E+003	9.1838110E-003	-4.8385008E-004	0
8.611542441855796E+003	9.1456445E-003	-5.3109688E-004	0
8.621542441734724E+003	9.2028948E-003	-4.9021759E-004	0
8.631542441613652E+003	9.2410613E-003	-4.9422908E-004	0
8.641542441492580E+003	9.2028948E-003	-5.0378032E-004	0
8.651542441371508E+003	9.1265608E-003	-5.0600898E-004	0
8.661542441250436E+003	9.1647273E-003	-4.8722481E-004	0
8.671542441129364E+003	9.2219785E-003	-5.0390774E-004	0
8.681542441008292E+003	9.2601450E-003	-4.8334064E-004	0
8.691542440887220E+003	9.1838110E-003	-4.9391069E-004	0
8.701542440766149E+003	9.1456445E-003	-4.9270090E-004	0
8.711542440645077E+003	9.2219785E-003	-5.0263421E-004	0
8.721542440524005E+003	9.2219785E-003	-4.9658504E-004	0
8.731542440402933E+003	9.3555627E-003	-4.9021759E-004	0
8.741542440281861E+003	9.2410613E-003	-4.7881971E-004	0
8.751542440160789E+003	9.3364790E-003	-4.7028731E-004	0
8.761542440039717E+003	9.1838110E-003	-4.9728551E-004	0
8.771542439918645E+003	9.2219785E-003	-4.6786765E-004	0
8.781542439797573E+003	9.0883933E-003	-4.9206417E-004	0
8.791542439676501E+003	9.2410613E-003	-4.8283127E-004	0
8.801542439555429E+003	9.2410613E-003	-5.1797985E-004	0
8.811542439434357E+003	9.1838110E-003	-4.7818298E-004	0
8.821542439313285E+003	9.3364790E-003	-5.0040556E-004	0
8.831542439192213E+003	9.1074770E-003	-4.8913504E-004	0
8.841542439071141E+003	9.1838110E-003	-5.1352259E-004	0
8.851542438950069E+003	9.1838110E-003	-4.7926549E-004	0
8.861542438828998E+003	9.1265608E-003	-4.7716420E-004	0
8.871542438707926E+003	9.2219785E-003	-4.8314963E-004	0
8.881542438586854E+003	9.4509805E-003	-4.7531762E-004	0
8.891542438465782E+003	9.2028948E-003	-4.9448380E-004	0
8.901542438344710E+003	9.0883933E-003	-4.8989919E-004	0
8.911542438223638E+003	9.2028948E-003	-4.6602107E-004	0
8.921542438102566E+003	9.2028948E-003	-4.8805261E-004	0
8.931542437981494E+003	9.2410613E-003	-4.6589374E-004	0
8.941542437860422E+003	9.2792287E-003	-4.8499621E-004	0
8.951542437739350E+003	9.1456445E-003	-4.9079064E-004	0
8.961542437618278E+003	9.1265608E-003	-4.8143041E-004	0
8.971542437497206E+003	9.2028948E-003	-4.7499925E-004	0
8.981542437376134E+003	9.2792287E-003	-4.8321328E-004	0
8.991542437255062E+003	9.2219785E-003	-5.0237949E-004	0
9.001542437133990E+003	9.2601450E-003	-4.9683981E-004	0
9.011542437012919E+003	9.0883933E-003	-4.7544501E-004	0
9.021542436891847E+003	9.2028948E-003	-4.6996895E-004	0
9.031542436770775E+003	9.2028948E-003	-4.6793133E-004	0
9.041542436649703E+003	9.1074770E-003	-4.7519026E-004	0
9.051542436528631E+003	9.1456445E-003	-4.7983858E-004	0
9.061542436407559E+003	9.2601450E-003	-5.0237949E-004	0
9.071542436286458E+003	9.2792287E-003	-4.5354076E-004	0
9.081542436165386E+003	9.2219785E-003	-4.7136974E-004	0
9.091542436044314E+003	9.1838110E-003	-4.8824362E-004	0
9.101542435923242E+003	9.2219785E-003	-4.8996287E-004	0
9.111542435802170E+003	9.1456445E-003	-4.6404713E-004	0
9.121542435681098E+003	9.2219785E-003	-4.7831034E-004	0
9.131542435560026E+003	9.2601450E-003	-4.6882278E-004	0
9.141542435438954E+003	9.1838110E-003	-4.8652443E-004	0
9.151542435317882E+003	9.1838110E-003	-4.7098770E-004	0
9.161542435196810E+003	9.2601450E-003	-4.5850745E-004	0
9.171542435075738E+003	9.1647273E-003	-4.8028424E-004	0
9.181542434954667E+003	9.1074770E-003	-4.5920789E-004	0
9.191542434833595E+003	9.1647273E-003	-4.9422908E-004	0
9.201542434712523E+003	9.2028948E-003	-4.5666084E-004	0
9.211542434591451E+003	9.2028948E-003	-4.7092405E-004	0
9.221542434470379E+003	9.1838110E-003	-4.6500229E-004	0
9.231542434349307E+003	9.2983125E-003	-5.0779188E-004	0
9.241542434228235E+003	9.2219785E-003	-4.7582702E-004	0
9.251542434107163E+003	9.2792287E-003	-4.9295556E-004	0
9.261542433986091E+003	9.2219785E-003	-4.4800108E-004	0
9.271542433865019E+003	9.2601450E-003	-4.9983250E-004	0
9.281542433743947E+003	9.1647273E-003	-4.6939586E-004	0
9.291542433622875E+003	9.1838110E-003	-4.5118481E-004	0
9.301542433501803E+003	9.2219785E-003	-4.5545102E-004	0
9.311542433380731E+003	9.2410613E-003	-5.0174270E-004	0
9.321542433259659E+003	9.1838110E-003	-4.6761299E-004	0
9.331542433138588E+003	9.3937302E-003	-4.6614843E-004	0
9.341542433017516E+003	9.2028948E-003	-4.5615147E-004	0
9.351542432896444E+003	9.2792287E-003	-4.5997198E-004	0
9.361542432775372E+003	9.2028948E-003	-4.5163053E-004	0
9.371542432654300E+003	9.1838110E-003	-4.5519636E-004	0
9.381542432533228E+003	9.2983125E-003	-4.5627879E-004	0
9.391542432412156E+003	9.2219785E-003	-4.6608475E-004	0
9.401542432291084E+003	9.1647273E-003	-4.4360751E-004	0
9.411542432170012E+003	9.1838110E-003	-4.7334374E-004	0
9.421542432048940E+003	9.2219785E-003	-4.7678215E-004	0
9.431542431927868E+003	9.2410613E-003	-4.6824969E-004	0
9.441542431806796E+003	9.2983125E-003	-4.6092708E-004	0
9.451542431685724E+003	9.2983125E-003	-4.7964751E-004	0
9.461542431564652E+003	9.1838110E-003	-4.7716420E-004	0
9.471542431443580E+003	9.4128130E-003	-4.8022059E-004	0
9.481542431322508E+003	9.2792287E-003	-4.6996895E-004	0
9.491542431201437E+003	9.1647273E-003	-4.6016299E-004	0
9.501542431080365E+003	9.1265608E-003	-4.7372576E-004	0
9.511542430959293E+003	9.1456445E-003	-4.3297379E-004	0
9.518952230869589E+003	9.2410613E-003	-3.9241285E-004	0
9.518952430869598E+003	9.2410613E-003	-3.9629699E-004	0