time/s	Ewe/V	I/mA	error	
6.005299848293362E+001	2.8566067E+000	-2.5030727E-002	0
6.017319847989711E+001	9.2219785E-003	-1.6602674E+001	0
6.017359847988700E+001	9.3555627E-003	-1.6524233E+001	0
6.017399847987690E+001	9.2219785E-003	-1.6444515E+001	0
6.017439847986680E+001	9.3173962E-003	-1.6376276E+001	0
6.017479847985669E+001	9.2792287E-003	-1.6294647E+001	0
6.017519847984659E+001	9.2028948E-003	-1.6226408E+001	0
6.017559847983648E+001	9.2601450E-003	-1.6149879E+001	0
6.017599847982638E+001	9.2410613E-003	-1.6081642E+001	0
6.017639847981627E+001	9.3173962E-003	-1.6008940E+001	0
6.017679847980617E+001	9.1456445E-003	-1.5943891E+001	0
6.017719847979606E+001	9.2792287E-003	-1.5871828E+001	0
6.017759847978596E+001	9.2219785E-003	-1.5802952E+001	0
6.017799847977585E+001	9.2219785E-003	-1.5727698E+001	0
6.017839847976575E+001	9.2792287E-003	-1.5655635E+001	0
6.017879847975564E+001	9.1838110E-003	-1.5593137E+001	0
6.017919847974554E+001	9.2410613E-003	-1.5522985E+001	0
6.017959847973543E+001	9.2792287E-003	-1.5456661E+001	0
6.017999847972533E+001	9.2792287E-003	-1.5392887E+001	0
6.018039847971522E+001	9.2028948E-003	-1.5325925E+001	0
6.018079847970512E+001	9.2601450E-003	-1.5261515E+001	0
6.018119847969501E+001	9.2983125E-003	-1.5197104E+001	0
6.018159847968491E+001	9.2792287E-003	-1.5131416E+001	0
6.018199847967480E+001	9.1838110E-003	-1.5065729E+001	0
6.018239847966470E+001	9.3173962E-003	-1.4998129E+001	0
6.018279847965459E+001	9.3173962E-003	-1.4937543E+001	0
6.018319847964449E+001	9.2983125E-003	-1.4878235E+001	0
6.018359847963438E+001	9.2601450E-003	-1.4813185E+001	0
6.018399847962428E+001	9.2792287E-003	-1.4757701E+001	0
6.018439847961417E+001	9.2792287E-003	-1.4695842E+001	0
6.018479847960407E+001	9.2792287E-003	-1.4629517E+001	0
6.018519847959396E+001	9.3555627E-003	-1.4574672E+001	0
6.018559847958386E+001	9.2219785E-003	-1.4504521E+001	0
6.018599847957375E+001	9.3173962E-003	-1.4449038E+001	0
6.018639847956365E+001	9.2028948E-003	-1.4395468E+001	0
6.018679847955354E+001	9.3173962E-003	-1.4327868E+001	0
6.018719847954344E+001	9.2410613E-003	-1.4274299E+001	0
6.018759847953334E+001	9.2601450E-003	-1.4222003E+001	0
6.018799847952323E+001	9.2983125E-003	-1.4161419E+001	0
6.018839847951313E+001	9.2410613E-003	-1.4093182E+001	0
6.018879847950302E+001	9.2601450E-003	-1.4035147E+001	0
6.018939847948786E+001	9.2601450E-003	-1.3950327E+001	0
6.018999847947271E+001	9.2601450E-003	-1.3875712E+001	0
6.019039847946260E+001	9.2219785E-003	-1.3820229E+001	0
6.019079847945250E+001	9.4509805E-003	-1.3762833E+001	0
6.019139847943734E+001	9.2219785E-003	-1.3679289E+001	0
6.019199847942218E+001	9.2219785E-003	-1.3600848E+001	0
6.019239847941208E+001	9.2028948E-003	-1.3544089E+001	0
6.019279847940197E+001	9.2410613E-003	-1.3491795E+001	0
6.019319847939187E+001	9.1838110E-003	-1.3437588E+001	0
6.019379847937671E+001	9.2028948E-003	-1.3365522E+001	0
6.019419847936661E+001	9.3173962E-003	-1.3308764E+001	0
6.019479847935145E+001	9.3555627E-003	-1.3225221E+001	0
6.019539847933629E+001	9.2792287E-003	-1.3165911E+001	0
6.019579847932619E+001	9.2219785E-003	-1.3105327E+001	0
6.019639847931103E+001	9.3173962E-003	-1.3034538E+001	0
6.019699847929587E+001	9.2601450E-003	-1.2955458E+001	0
6.019739847928577E+001	9.2410613E-003	-1.2905077E+001	0
6.019799847927061E+001	9.3364790E-003	-1.2833013E+001	0
6.019859847925545E+001	9.2028948E-003	-1.2760311E+001	0
6.019899847924535E+001	9.2792287E-003	-1.2709930E+001	0
6.019959847923019E+001	9.2219785E-003	-1.2652534E+001	0
6.019999847922008E+001	9.4128130E-003	-1.2597689E+001	0
6.020059847920493E+001	9.2028948E-003	-1.2524986E+001	0
6.020119847918977E+001	9.3555627E-003	-1.2457387E+001	0
6.020179847917461E+001	9.1647273E-003	-1.2397440E+001	0
6.020219847916451E+001	9.3555627E-003	-1.2347058E+001	0
6.020279847914935E+001	9.2792287E-003	-1.2276907E+001	0
6.020339847913419E+001	9.2601450E-003	-1.2208032E+001	0
6.020399847911904E+001	9.2983125E-003	-1.2142344E+001	0
6.020459847910388E+001	9.2983125E-003	-1.2080484E+001	0
6.020519847908872E+001	9.2792287E-003	-1.2019262E+001	0
6.020559847907862E+001	9.2792287E-003	-1.1962503E+001	0
6.020619847906346E+001	9.3364790E-003	-1.1909571E+001	0
6.020679847904830E+001	9.3555627E-003	-1.1842608E+001	0
6.020739847903315E+001	9.2601450E-003	-1.1778198E+001	0
6.020799847901799E+001	9.2028948E-003	-1.1720801E+001	0
6.020859847900283E+001	9.2601450E-003	-1.1657028E+001	0
6.020919847898767E+001	9.3173962E-003	-1.1595805E+001	0
6.020979847897252E+001	9.3173962E-003	-1.1544148E+001	0
6.021019847896241E+001	9.2983125E-003	-1.1493767E+001	0
6.021079847894725E+001	9.2028948E-003	-1.1438922E+001	0
6.021139847893210E+001	9.2028948E-003	-1.1380250E+001	0
6.021199847891694E+001	9.2601450E-003	-1.1317114E+001	0
6.021259847890178E+001	9.2219785E-003	-1.1260993E+001	0
6.021319847888662E+001	9.2219785E-003	-1.1208699E+001	0
6.021379847887147E+001	9.2792287E-003	-1.1143012E+001	0
6.021439847885631E+001	9.2410613E-003	-1.1083703E+001	0
6.021499847884115E+001	9.2983125E-003	-1.1027581E+001	0
6.021579847882094E+001	9.1647273E-003	-1.0964446E+001	0
6.021639847880579E+001	9.2410613E-003	-1.0904498E+001	0
6.021699847879063E+001	9.1838110E-003	-1.0852204E+001	0
6.021759847877547E+001	9.2410613E-003	-1.0796083E+001	0
6.021819847876031E+001	9.2410613E-003	-1.0742514E+001	0
6.021899847874010E+001	9.2792287E-003	-1.0678740E+001	0
6.021959847872495E+001	9.2410613E-003	-1.0621981E+001	0
6.022019847870979E+001	9.1838110E-003	-1.0565860E+001	0
6.022099847868958E+001	9.2410613E-003	-1.0502088E+001	0
6.022179847866937E+001	9.2601450E-003	-1.0433848E+001	0
6.022259847864916E+001	9.2792287E-003	-1.0370712E+001	0
6.022319847863400E+001	9.3364790E-003	-1.0320332E+001	0
6.022399847861379E+001	9.2028948E-003	-1.0259747E+001	0
6.022459847859864E+001	9.2983125E-003	-1.0208090E+001	0
6.022539847857843E+001	9.2410613E-003	-1.0138577E+001	0
6.022619847855822E+001	9.2601450E-003	-1.0078630E+001	0
6.022699847853801E+001	9.3173962E-003	-1.0015494E+001	0
6.022779847851780E+001	9.2792287E-003	-9.9651127E+000	0
6.022859847849759E+001	9.2792287E-003	-9.8981504E+000	0
6.022939847847738E+001	9.1838110E-003	-9.8350143E+000	0
6.023019847845717E+001	9.2792287E-003	-9.7769794E+000	0
6.023099847843696E+001	9.3364790E-003	-9.7144823E+000	0
6.023199847841170E+001	9.3173962E-003	-9.6449690E+000	0
6.023299847838643E+001	9.2983125E-003	-9.5709915E+000	0
6.023379847836623E+001	9.2219785E-003	-9.5199728E+000	0
6.023459847834602E+001	9.2028948E-003	-9.4638519E+000	0
6.023539847832581E+001	9.2219785E-003	-9.4121952E+000	0
6.023619847830560E+001	9.1838110E-003	-9.3547983E+000	0
6.023699847828539E+001	9.2792287E-003	-9.2974024E+000	0
6.023779847826518E+001	9.2219785E-003	-9.2470207E+000	0
6.023879847823991E+001	9.3937302E-003	-9.1800585E+000	0
6.023959847821970E+001	9.2792287E-003	-9.1271267E+000	0
6.024059847819444E+001	9.2792287E-003	-9.0659037E+000	0
6.024159847816918E+001	9.2983125E-003	-9.0046806E+000	0
6.024239847814897E+001	9.2983125E-003	-8.9504728E+000	0
6.024319847812876E+001	9.2410613E-003	-8.9000931E+000	0
6.024419847810350E+001	9.3173962E-003	-8.8414202E+000	0
6.024499847808329E+001	9.2601450E-003	-8.7904015E+000	0
6.024579847806308E+001	9.2601450E-003	-8.7374706E+000	0
6.024699847803277E+001	9.1838110E-003	-8.6717834E+000	0
6.024799847800750E+001	9.2983125E-003	-8.6169376E+000	0
6.024899847798224E+001	9.2219785E-003	-8.5506124E+000	0
6.025019847795193E+001	9.1265608E-003	-8.4881153E+000	0
6.025119847792666E+001	9.2410613E-003	-8.4294434E+000	0
6.025219847790140E+001	9.2792287E-003	-8.3714094E+000	0
6.025319847787614E+001	9.3555627E-003	-8.3172016E+000	0
6.025419847785088E+001	9.2028948E-003	-8.2629938E+000	0
6.025519847782562E+001	9.2983125E-003	-8.2119751E+000	0
6.025619847780035E+001	9.3937302E-003	-8.1584053E+000	0
6.025719847777509E+001	9.2601450E-003	-8.1067486E+000	0
6.025839847774478E+001	9.3173962E-003	-8.0461636E+000	0
6.025959847771446E+001	9.2219785E-003	-7.9830275E+000	0
6.026059847768920E+001	9.2601450E-003	-7.9307323E+000	0
6.026179847765889E+001	9.4128130E-003	-7.8726988E+000	0
6.026279847763362E+001	9.2601450E-003	-7.8223171E+000	0
6.026399847760331E+001	9.2410613E-003	-7.7610950E+000	0
6.026519847757299E+001	9.2792287E-003	-7.7068872E+000	0
6.026639847754268E+001	9.3173962E-003	-7.6565070E+000	0
6.026759847751237E+001	9.2983125E-003	-7.6029363E+000	0
6.026859847748710E+001	9.3746465E-003	-7.5500040E+000	0
6.026999847745174E+001	9.2410613E-003	-7.4926081E+000	0
6.027119847742142E+001	9.2601450E-003	-7.4384007E+000	0
6.027239847739111E+001	9.2792287E-003	-7.3854685E+000	0
6.027359847736079E+001	9.3364790E-003	-7.3350873E+000	0
6.027479847733048E+001	9.2792287E-003	-7.2751403E+000	0
6.027599847730016E+001	9.2410613E-003	-7.2228451E+000	0
6.027759847725974E+001	9.3364790E-003	-7.1660876E+000	0
6.027899847722438E+001	9.3555627E-003	-7.1086907E+000	0
6.028019847719406E+001	9.2983125E-003	-7.0563965E+000	0
6.028159847715870E+001	9.2601450E-003	-7.0028262E+000	0
6.028279847712838E+001	9.1838110E-003	-6.9524450E+000	0
6.028419847709301E+001	9.3173962E-003	-6.8982377E+000	0
6.028559847705765E+001	9.2983125E-003	-6.8459430E+000	0
6.028719847701723E+001	9.2983125E-003	-6.7847209E+000	0
6.028859847698186E+001	9.2410613E-003	-6.7324266E+000	0
6.029019847694144E+001	9.1456445E-003	-6.6782188E+000	0
6.029179847690102E+001	9.2410613E-003	-6.6208224E+000	0
6.029319847686565E+001	9.3364790E-003	-6.5698032E+000	0
6.029479847682524E+001	9.2410613E-003	-6.5124073E+000	0
6.029639847678482E+001	9.1838110E-003	-6.4588370E+000	0
6.029799847674440E+001	9.2601450E-003	-6.4065428E+000	0
6.029959847670398E+001	9.2219785E-003	-6.3472338E+000	0
6.030159847665345E+001	9.3173962E-003	-6.2834597E+000	0
6.030359847660293E+001	9.2410613E-003	-6.2260637E+000	0
6.030519847656251E+001	9.2219785E-003	-6.1756825E+000	0
6.030679847652209E+001	9.2792287E-003	-6.1221128E+000	0
6.030859847647662E+001	9.2410613E-003	-6.0698180E+000	0
6.031039847643115E+001	9.2410613E-003	-6.0175238E+000	0
6.031199847639073E+001	9.2792287E-003	-5.9626784E+000	0
6.031399847634020E+001	9.3173962E-003	-5.9084706E+000	0
6.031579847629473E+001	9.2601450E-003	-5.8574524E+000	0
6.031779847624421E+001	9.2410613E-003	-5.8051572E+000	0
6.031959847619873E+001	9.2410613E-003	-5.7496743E+000	0
6.032159847614821E+001	9.2792287E-003	-5.6992936E+000	0
6.032359847609769E+001	9.3173962E-003	-5.6482744E+000	0
6.032539847605221E+001	9.3173962E-003	-5.5966177E+000	0
6.032759847599664E+001	9.2792287E-003	-5.5430479E+000	0
6.032979847594106E+001	9.2983125E-003	-5.4888401E+000	0
6.033199847588548E+001	9.3173962E-003	-5.4384589E+000	0
6.033399847583496E+001	9.2219785E-003	-5.3868027E+000	0
6.033619847577938E+001	9.2792287E-003	-5.3338704E+000	0
6.033859847571875E+001	9.2028948E-003	-5.2809381E+000	0
6.034099847565813E+001	9.2219785E-003	-5.2305570E+000	0
6.034339847559750E+001	9.3364790E-003	-5.1801763E+000	0
6.034559847554192E+001	9.2410613E-003	-5.1278811E+000	0
6.034799847548129E+001	9.2410613E-003	-5.0755873E+000	0
6.035039847542066E+001	9.2792287E-003	-5.0252056E+000	0
6.035319847534993E+001	9.2601450E-003	-4.9729114E+000	0
6.035539847529435E+001	9.3364790E-003	-4.9225302E+000	0
6.035839847521856E+001	9.2601450E-003	-4.8721485E+000	0
6.036099847515288E+001	9.2983125E-003	-4.8217678E+000	0
6.036359847508720E+001	9.2219785E-003	-4.7701111E+000	0
6.036699847500131E+001	9.2601450E-003	-4.7152658E+000	0
6.036979847493058E+001	9.2792287E-003	-4.6616960E+000	0
6.037259847485984E+001	9.2601450E-003	-4.6113148E+000	0
6.037599847477395E+001	9.2410613E-003	-4.5583825E+000	0
6.037939847468806E+001	9.3173962E-003	-4.5041747E+000	0
6.038319847459206E+001	9.2983125E-003	-4.4512429E+000	0
6.038619847451628E+001	9.2792287E-003	-4.3970351E+000	0
6.038999847442028E+001	9.2028948E-003	-4.3447413E+000	0
6.039379847432429E+001	9.1838110E-003	-4.2867064E+000	0
6.039739847423334E+001	9.3173962E-003	-4.2363257E+000	0
6.040159847412724E+001	9.2792287E-003	-4.1840315E+000	0
6.040539847403124E+001	9.2601450E-003	-4.1317368E+000	0
6.040959847392514E+001	9.2219785E-003	-4.0749784E+000	0
6.041419847380894E+001	9.3364790E-003	-4.0220461E+000	0
6.041859847369778E+001	9.2601450E-003	-3.9697518E+000	0
6.042299847358663E+001	9.2410613E-003	-3.9168196E+000	0
6.042739847347548E+001	9.2792287E-003	-3.8645253E+000	0
6.043199847335927E+001	9.2219785E-003	-3.8128688E+000	0
6.043719847322791E+001	9.3364790E-003	-3.7592990E+000	0
6.044239847309655E+001	9.2219785E-003	-3.7050912E+000	0
6.044759847296518E+001	9.2410613E-003	-3.6527967E+000	0
6.045299847282877E+001	9.2219785E-003	-3.5966761E+000	0
6.045939847266709E+001	9.3173962E-003	-3.5443816E+000	0
6.046499847252562E+001	9.2219785E-003	-3.4863479E+000	0
6.047219847234373E+001	9.2601450E-003	-3.4359665E+000	0
6.050359847155050E+001	9.1647273E-003	-3.2172456E+000	0
6.051059847137367E+001	9.2410613E-003	-3.1669521E+000	0
6.051799847118673E+001	9.3364790E-003	-3.1160221E+000	0
6.052579847098968E+001	9.2983125E-003	-3.0640094E+000	0
6.053379847078759E+001	9.2028948E-003	-3.0135250E+000	0
6.054179847058549E+001	9.2983125E-003	-2.9631679E+000	0
6.055039847036824E+001	9.3746465E-003	-2.9126832E+000	0
6.055919847014593E+001	9.1647273E-003	-2.8623896E+000	0
6.056839846991352E+001	9.2792287E-003	-2.8101861E+000	0
6.057799846967100E+001	9.2601450E-003	-2.7598290E+000	0
6.058779846942343E+001	9.2792287E-003	-2.7089624E+000	0
6.059799846916576E+001	9.3746465E-003	-2.6580958E+000	0
6.060879846889293E+001	9.2410613E-003	-2.6069109E+000	0
6.061999846860999E+001	9.2410613E-003	-2.5559809E+000	0
6.063159846831695E+001	9.2028948E-003	-2.5059419E+000	0
6.064339846801886E+001	9.2983125E-003	-2.4555209E+000	0
6.065599846770056E+001	9.2410613E-003	-2.4049728E+000	0
6.066899846737215E+001	9.2028948E-003	-2.3542972E+000	0
6.068259846702858E+001	9.3173962E-003	-2.3039398E+000	0
6.069679846666986E+001	9.2410613E-003	-2.2537100E+000	0
6.071179846629093E+001	9.2028948E-003	-2.2029071E+000	0
6.072739846589684E+001	9.2410613E-003	-2.1522951E+000	0
6.074379846548254E+001	9.2028948E-003	-2.1021926E+000	0
6.076079846505309E+001	9.3555627E-003	-2.0518990E+000	0
6.077919846458826E+001	9.3173962E-003	-2.0009050E+000	0
6.079819846410828E+001	9.2601450E-003	-1.9506115E+000	0
6.081819846360304E+001	9.2219785E-003	-1.9002541E+000	0
6.083959846306243E+001	9.2792287E-003	-1.8494513E+000	0
6.086239846248645E+001	9.2983125E-003	-1.7985847E+000	0
6.088639846188016E+001	9.1456445E-003	-1.7479728E+000	0
6.091219846122840E+001	9.3173962E-003	-1.6976156E+000	0
6.093939846054127E+001	9.2410613E-003	-1.6473221E+000	0
6.096839845980867E+001	9.2792287E-003	-1.5972831E+000	0
6.099979845901544E+001	9.1647273E-003	-1.5472442E+000	0
6.103339845816663E+001	9.2219785E-003	-1.4972053E+000	0
6.106959845725214E+001	9.2219785E-003	-1.4467843E+000	0
6.110939845624671E+001	9.2410613E-003	-1.3965545E+000	0
6.115239845516044E+001	9.2601450E-003	-1.3463246E+000	0
6.119999845395796E+001	9.2219785E-003	-1.2958399E+000	0
6.125139845265949E+001	9.2792287E-003	-1.2455463E+000	0
6.130779845123470E+001	9.2410613E-003	-1.1951891E+000	0
6.137019844965835E+001	9.3746465E-003	-1.1451502E+000	0
6.143959844790515E+001	9.1838110E-003	-1.0950475E+000	0
6.151599844597513E+001	9.2410613E-003	-1.0444993E+000	0
6.160179844380764E+001	9.2601450E-003	-9.9420571E-001	0
6.169759844138753E+001	9.3364790E-003	-9.4391209E-001	0
6.180699843862385E+001	9.2983125E-003	-8.9317286E-001	0
6.192719843558734E+001	9.2410613E-003	-8.4294295E-001	0
6.207339843189402E+001	9.1838110E-003	-7.9290402E-001	0
6.223619842778135E+001	9.1838110E-003	-7.4280143E-001	0
6.242759842294618E+001	9.2028948E-003	-6.9276255E-001	0
6.265479841720662E+001	9.2219785E-003	-6.4272356E-001	0
6.292899841027975E+001	9.3173962E-003	-5.9217536E-001	0
6.326019840191293E+001	9.2028948E-003	-5.4213643E-001	0
6.367739839137357E+001	9.2792287E-003	-4.9190646E-001	0
6.420459837805538E+001	9.3173962E-003	-4.4180384E-001	0
6.498799835826503E+001	9.2219785E-003	-3.9172521E-001	0
6.505279835662805E+001	9.2792287E-003	-3.8859242E-001	0
6.505339835659834E+001	9.1456445E-003	-3.8755453E-001	0
6.609619833025499E+001	9.2983125E-003	-3.3755079E-001	0
6.762799829155847E+001	9.2028948E-003	-2.8737512E-001	0
7.006579822997446E+001	9.2601450E-003	-2.3733316E-001	0
7.428979812326725E+001	9.2601450E-003	-1.8728484E-001	0
8.286619790660916E+001	9.2983125E-003	-1.3718557E-001	0
9.286619765398791E+001	9.1838110E-003	-1.0749407E-001	0
1.028661974013667E+002	9.2792287E-003	-8.9461386E-002	0
1.128661971487454E+002	9.2219785E-003	-7.5452961E-002	0
1.228661968961242E+002	9.1265608E-003	-6.5284103E-002	0
1.328661966435029E+002	9.2410613E-003	-5.7859633E-002	0
1.428661963908817E+002	9.2792287E-003	-5.1746860E-002	0
1.528661961382604E+002	9.2792287E-003	-4.6983991E-002	0
1.628661958856392E+002	9.2219785E-003	-4.3555964E-002	0
1.728661956330179E+002	9.2601450E-003	-4.0257152E-002	0
1.765253955405788E+002	9.1265608E-003	-3.9191503E-002	0
1.765255955405737E+002	9.3173962E-003	-3.9262801E-002	0