time/s	Ewe/V	I/mA	error	
6.005299848293362E+001	2.8690782E+000	-2.5030727E-002	0
6.017319847989711E+001	9.2028948E-003	-1.5310619E+001	0
6.017359847988700E+001	9.2983125E-003	-1.5243019E+001	0
6.017399847987690E+001	9.3173962E-003	-1.5180521E+001	0
6.017439847986680E+001	9.2410613E-003	-1.5112921E+001	0
6.017479847985669E+001	9.2983125E-003	-1.5043407E+001	0
6.017519847984659E+001	9.1647273E-003	-1.4978359E+001	0
6.017559847983648E+001	9.2410613E-003	-1.4912672E+001	0
6.017599847982638E+001	9.3364790E-003	-1.4844435E+001	0
6.017639847981627E+001	9.2410613E-003	-1.4786400E+001	0
6.017679847980617E+001	9.1456445E-003	-1.4718801E+001	0
6.017719847979606E+001	9.1838110E-003	-1.4663954E+001	0
6.017759847978596E+001	9.2601450E-003	-1.4594442E+001	0
6.017799847977585E+001	9.1647273E-003	-1.4535132E+001	0
6.017839847976575E+001	9.1265608E-003	-1.4478374E+001	0
6.017879847975564E+001	9.2410613E-003	-1.4405034E+001	0
6.017919847974554E+001	9.1456445E-003	-1.4351464E+001	0
6.017959847973543E+001	9.2601450E-003	-1.4288965E+001	0
6.017999847972533E+001	9.2601450E-003	-1.4225192E+001	0
6.018039847971522E+001	9.2601450E-003	-1.4172897E+001	0
6.018079847970512E+001	9.2792287E-003	-1.4113589E+001	0
6.018119847969501E+001	9.2792287E-003	-1.4054916E+001	0
6.018159847968491E+001	9.2028948E-003	-1.3998796E+001	0
6.018199847967480E+001	9.3555627E-003	-1.3940125E+001	0
6.018239847966470E+001	9.2028948E-003	-1.3884004E+001	0
6.018279847965459E+001	9.2410613E-003	-1.3825969E+001	0
6.018319847964449E+001	9.2410613E-003	-1.3774950E+001	0
6.018359847963438E+001	9.2792287E-003	-1.3717554E+001	0
6.018399847962428E+001	9.3173962E-003	-1.3655055E+001	0
6.018439847961417E+001	9.2792287E-003	-1.3601485E+001	0
6.018499847959902E+001	9.2410613E-003	-1.3526232E+001	0
6.018539847958891E+001	9.2983125E-003	-1.3469475E+001	0
6.018579847957881E+001	9.2792287E-003	-1.3412715E+001	0
6.018619847956870E+001	9.2028948E-003	-1.3358508E+001	0
6.018659847955860E+001	9.2792287E-003	-1.3308126E+001	0
6.018699847954849E+001	9.2601450E-003	-1.3251369E+001	0
6.018739847953839E+001	9.1456445E-003	-1.3200350E+001	0
6.018779847952828E+001	9.1647273E-003	-1.3149330E+001	0
6.018819847951818E+001	9.1838110E-003	-1.3098311E+001	0
6.018859847950807E+001	9.2219785E-003	-1.3046018E+001	0
6.018899847949797E+001	9.2601450E-003	-1.2989260E+001	0
6.018959847948281E+001	9.2601450E-003	-1.2923573E+001	0
6.018999847947271E+001	9.2219785E-003	-1.2865538E+001	0
6.019059847945755E+001	9.2601450E-003	-1.2794111E+001	0
6.019119847944239E+001	9.2601450E-003	-1.2723960E+001	0
6.019159847943229E+001	9.2983125E-003	-1.2668477E+001	0
6.019219847941713E+001	9.1838110E-003	-1.2602152E+001	0
6.019259847940702E+001	9.2028948E-003	-1.2550496E+001	0
6.019319847939187E+001	9.2410613E-003	-1.2483534E+001	0
6.019379847937671E+001	9.2792287E-003	-1.2410832E+001	0
6.019439847936155E+001	9.2219785E-003	-1.2335579E+001	0
6.019499847934640E+001	9.1838110E-003	-1.2272443E+001	0
6.019559847933124E+001	9.1838110E-003	-1.2203568E+001	0
6.019619847931608E+001	9.2792287E-003	-1.2133416E+001	0
6.019679847930092E+001	9.2410613E-003	-1.2062628E+001	0
6.019739847928577E+001	9.4128130E-003	-1.1999492E+001	0
6.019799847927061E+001	9.2983125E-003	-1.1940821E+001	0
6.019839847926050E+001	9.4318967E-003	-1.1888526E+001	0
6.019899847924535E+001	9.2028948E-003	-1.1823477E+001	0
6.019959847923019E+001	9.2983125E-003	-1.1755239E+001	0
6.020019847921503E+001	9.1074770E-003	-1.1699119E+001	0
6.020079847919988E+001	9.1647273E-003	-1.1639809E+001	0
6.020139847918472E+001	9.2983125E-003	-1.1576674E+001	0
6.020199847916956E+001	9.3555627E-003	-1.1510348E+001	0
6.020259847915440E+001	9.3746465E-003	-1.1445299E+001	0
6.020319847913925E+001	9.2601450E-003	-1.1382163E+001	0
6.020379847912409E+001	9.2028948E-003	-1.1327956E+001	0
6.020439847910893E+001	9.2983125E-003	-1.1274385E+001	0
6.020499847909377E+001	9.3746465E-003	-1.1206785E+001	0
6.020559847907862E+001	9.2410613E-003	-1.1149389E+001	0
6.020619847906346E+001	9.2028948E-003	-1.1092630E+001	0
6.020679847904830E+001	9.1647273E-003	-1.1033959E+001	0
6.020739847903315E+001	9.2410613E-003	-1.0977839E+001	0
6.020799847901799E+001	9.2410613E-003	-1.0918529E+001	0
6.020859847900283E+001	9.2792287E-003	-1.0864321E+001	0
6.020919847898767E+001	9.3173962E-003	-1.0808838E+001	0
6.020979847897252E+001	9.3173962E-003	-1.0748253E+001	0
6.021039847895736E+001	9.2601450E-003	-1.0697234E+001	0
6.021099847894220E+001	9.2601450E-003	-1.0644301E+001	0
6.021179847892199E+001	9.3555627E-003	-1.0567137E+001	0
6.021259847890178E+001	9.1456445E-003	-1.0496347E+001	0
6.021339847888157E+001	9.2792287E-003	-1.0431298E+001	0
6.021399847886642E+001	9.3173962E-003	-1.0379004E+001	0
6.021479847884621E+001	9.3937302E-003	-1.0320332E+001	0
6.021539847883105E+001	9.2219785E-003	-1.0261660E+001	0
6.021619847881084E+001	9.3173962E-003	-1.0195972E+001	0
6.021679847879568E+001	9.2983125E-003	-1.0139215E+001	0
6.021759847877547E+001	9.2028948E-003	-1.0076078E+001	0
6.021839847875526E+001	9.2792287E-003	-1.0012304E+001	0
6.021919847873505E+001	9.2219785E-003	-9.9504452E+000	0
6.021999847871484E+001	9.2601450E-003	-9.8853960E+000	0
6.022079847869463E+001	9.1456445E-003	-9.8241730E+000	0
6.022159847867442E+001	9.2410613E-003	-9.7572107E+000	0
6.022239847865421E+001	9.2601450E-003	-9.7010899E+000	0
6.022319847863400E+001	9.2983125E-003	-9.6436930E+000	0
6.022399847861379E+001	9.2028948E-003	-9.5843840E+000	0
6.022479847859358E+001	9.3364790E-003	-9.5206099E+000	0
6.022559847857337E+001	9.2410613E-003	-9.4670401E+000	0
6.022639847855316E+001	9.2983125E-003	-9.4109192E+000	0
6.022719847853296E+001	9.1265608E-003	-9.3496971E+000	0
6.022799847851275E+001	9.2601450E-003	-9.2884741E+000	0
6.022899847848748E+001	9.1838110E-003	-9.2278891E+000	0
6.022979847846727E+001	9.2792287E-003	-9.1749563E+000	0
6.023059847844706E+001	9.1265608E-003	-9.1213865E+000	0
6.023159847842180E+001	9.3364790E-003	-9.0537863E+000	0
6.023239847840159E+001	9.2983125E-003	-9.0021296E+000	0
6.023319847838138E+001	9.1838110E-003	-8.9472847E+000	0
6.023399847836117E+001	9.2601450E-003	-8.8886137E+000	0
6.023499847833591E+001	9.1647273E-003	-8.8280277E+000	0
6.023579847831570E+001	9.2410613E-003	-8.7763710E+000	0
6.023679847829044E+001	9.1838110E-003	-8.7228012E+000	0
6.023759847827023E+001	9.1647273E-003	-8.6634912E+000	0
6.023879847823991E+001	9.1074770E-003	-8.5933418E+000	0
6.023979847821465E+001	9.2028948E-003	-8.5257406E+000	0
6.024099847818434E+001	9.2601450E-003	-8.4626045E+000	0
6.024199847815908E+001	9.2792287E-003	-8.4020205E+000	0
6.024319847812876E+001	9.1838110E-003	-8.3401604E+000	0
6.024419847810350E+001	9.2410613E-003	-8.2782993E+000	0
6.024519847807824E+001	9.2219785E-003	-8.2221785E+000	0
6.024619847805297E+001	9.2028948E-003	-8.1698837E+000	0
6.024719847802771E+001	9.2410613E-003	-8.1150389E+000	0
6.024819847800245E+001	9.2219785E-003	-8.0595560E+000	0
6.024939847797214E+001	9.2219785E-003	-7.9964199E+000	0
6.025039847794687E+001	9.2410613E-003	-7.9447632E+000	0
6.025159847791656E+001	9.2028948E-003	-7.8809891E+000	0
6.025279847788624E+001	9.2601450E-003	-7.8274193E+000	0
6.025379847786098E+001	9.2792287E-003	-7.7744875E+000	0
6.025479847783572E+001	9.2983125E-003	-7.7215552E+000	0
6.025599847780541E+001	9.1647273E-003	-7.6654348E+000	0
6.025699847778014E+001	9.1838110E-003	-7.6144156E+000	0
6.025819847774983E+001	9.2983125E-003	-7.5576572E+000	0
6.025939847771951E+001	9.2219785E-003	-7.4977098E+000	0
6.026079847768415E+001	9.2792287E-003	-7.4320230E+000	0
6.026219847764878E+001	9.2601450E-003	-7.3746271E+000	0
6.026339847761847E+001	9.3364790E-003	-7.3185062E+000	0
6.026459847758815E+001	9.2219785E-003	-7.2642984E+000	0
6.026599847755278E+001	9.2983125E-003	-7.2069020E+000	0
6.026719847752247E+001	9.2219785E-003	-7.1546082E+000	0
6.026839847749216E+001	9.2410613E-003	-7.0978494E+000	0
6.026999847745174E+001	9.3555627E-003	-7.0404530E+000	0
6.027119847742142E+001	9.1647273E-003	-6.9830570E+000	0
6.027239847739111E+001	9.3173962E-003	-6.9320378E+000	0
6.027379847735574E+001	9.2410613E-003	-6.8810191E+000	0
6.027519847732037E+001	9.2219785E-003	-6.8306375E+000	0
6.027659847728501E+001	9.2983125E-003	-6.7783432E+000	0
6.027779847725469E+001	9.2410613E-003	-6.7279620E+000	0
6.027919847721932E+001	9.2219785E-003	-6.6769428E+000	0
6.028039847718901E+001	9.2601450E-003	-6.6252861E+000	0
6.028199847714859E+001	9.2410613E-003	-6.5710793E+000	0
6.028359847710817E+001	9.2219785E-003	-6.5124073E+000	0
6.028519847706775E+001	9.2983125E-003	-6.4492712E+000	0
6.028699847702228E+001	9.1647273E-003	-6.3976150E+000	0
6.028839847698691E+001	9.2792287E-003	-6.3446822E+000	0
6.029019847694144E+001	9.2601450E-003	-6.2891994E+000	0
6.029179847690102E+001	9.3746465E-003	-6.2298899E+000	0
6.029359847685555E+001	9.3555627E-003	-6.1693053E+000	0
6.029519847681513E+001	9.2410613E-003	-6.1182861E+000	0
6.029699847676966E+001	9.1074770E-003	-6.0653539E+000	0
6.029859847672924E+001	9.3173962E-003	-6.0136971E+000	0
6.030039847668377E+001	9.3173962E-003	-5.9556632E+000	0
6.030199847664335E+001	9.2219785E-003	-5.9046445E+000	0
6.030419847658777E+001	9.2983125E-003	-5.8491611E+000	0
6.030579847654735E+001	9.2792287E-003	-5.7968669E+000	0
6.030779847649683E+001	9.2601450E-003	-5.7394710E+000	0
6.030979847644630E+001	9.2792287E-003	-5.6890898E+000	0
6.031179847639578E+001	9.2983125E-003	-5.6355200E+000	0
6.031379847634526E+001	9.2601450E-003	-5.5787611E+000	0
6.031559847629978E+001	9.2601450E-003	-5.5283799E+000	0
6.031759847624926E+001	9.1647273E-003	-5.4767232E+000	0
6.031979847619368E+001	9.2983125E-003	-5.4225159E+000	0
6.032179847614316E+001	9.1838110E-003	-5.3695836E+000	0
6.032399847608758E+001	9.2219785E-003	-5.3160138E+000	0
6.032639847602695E+001	9.2792287E-003	-5.2560663E+000	0
6.032859847597138E+001	9.2601450E-003	-5.2031345E+000	0
6.033099847591075E+001	9.3173962E-003	-5.1502023E+000	0
6.033339847585012E+001	9.1647273E-003	-5.0940809E+000	0
6.033579847578949E+001	9.3173962E-003	-5.0436997E+000	0
6.033799847573391E+001	9.2028948E-003	-4.9888544E+000	0
6.034079847566318E+001	9.2792287E-003	-4.9352846E+000	0
6.034319847560255E+001	9.2601450E-003	-4.8810773E+000	0
6.034579847553687E+001	9.2983125E-003	-4.8281450E+000	0
6.034859847546613E+001	9.2028948E-003	-4.7681980E+000	0
6.035159847539035E+001	9.2028948E-003	-4.7165413E+000	0
6.035439847531961E+001	9.2219785E-003	-4.6661601E+000	0
6.035659847526404E+001	9.2601450E-003	-4.6157789E+000	0
6.035959847518825E+001	9.3173962E-003	-4.5622091E+000	0
6.036259847511246E+001	9.2410613E-003	-4.5092769E+000	0
6.036579847503162E+001	9.2983125E-003	-4.4588957E+000	0
6.036859847496089E+001	9.2983125E-003	-4.4040508E+000	0
6.037159847488510E+001	9.2983125E-003	-4.3536692E+000	0
6.037319847484468E+001	9.3364790E-003	-4.4178557E+000	0
6.040339847408177E+001	9.2219785E-003	-3.9251122E+000	0
6.040739847398072E+001	9.2219785E-003	-3.8740547E+000	0
6.041159847387462E+001	9.2410613E-003	-3.8222332E+000	0
6.041579847376852E+001	9.2792287E-003	-3.7721307E+000	0
6.042019847365737E+001	9.1456445E-003	-3.7215824E+000	0
6.042459847354621E+001	9.2410613E-003	-3.6715434E+000	0
6.042939847342495E+001	9.2410613E-003	-3.6193397E+000	0
6.043439847329864E+001	9.3173962E-003	-3.5669453E+000	0
6.043959847316728E+001	9.3937302E-003	-3.5142326E+000	0
6.044479847303592E+001	9.3173962E-003	-3.4638116E+000	0
6.045019847289950E+001	9.2028948E-003	-3.4123721E+000	0
6.045579847275803E+001	9.2028948E-003	-3.3616967E+000	0
6.046159847261151E+001	9.2410613E-003	-3.3108301E+000	0
6.046739847246499E+001	9.3555627E-003	-3.2602179E+000	0
6.047359847230837E+001	9.2410613E-003	-3.2096701E+000	0
6.047999847214669E+001	9.2601450E-003	-3.1581030E+000	0
6.048679847197491E+001	9.2410613E-003	-3.1076186E+000	0
6.049359847180313E+001	9.2601450E-003	-3.0561790E+000	0
6.050079847162124E+001	9.2028948E-003	-3.0054398E+000	0
6.050839847142925E+001	9.3173962E-003	-2.9540641E+000	0
6.051639847122715E+001	9.3173962E-003	-2.9020514E+000	0
6.052439847102505E+001	9.2028948E-003	-2.8509941E+000	0
6.053299847080780E+001	9.2792287E-003	-2.7999365E+000	0
6.054179847058549E+001	9.2028948E-003	-2.7480514E+000	0
6.055099847035308E+001	9.3173962E-003	-2.6976941E+000	0
6.056039847011562E+001	9.3173962E-003	-2.6474006E+000	0
6.057039846986299E+001	9.2792287E-003	-2.5967250E+000	0
6.058059846960532E+001	9.1647273E-003	-2.5466862E+000	0
6.059139846933249E+001	9.2983125E-003	-2.4958196E+000	0
6.060259846904955E+001	9.2983125E-003	-2.4453986E+000	0
6.061419846875651E+001	9.2792287E-003	-2.3951688E+000	0
6.062679846843821E+001	9.3364790E-003	-2.3439202E+000	0
6.063979846810980E+001	9.2410613E-003	-2.2926080E+000	0
6.065319846777129E+001	9.2028948E-003	-2.2419324E+000	0
6.066759846740752E+001	9.2601450E-003	-2.1916387E+000	0
6.068219846703869E+001	9.2219785E-003	-2.1409633E+000	0
6.069779846664460E+001	9.2792287E-003	-2.0908608E+000	0
6.071419846623030E+001	9.2601450E-003	-2.0403123E+000	0
6.073139846579579E+001	9.3173962E-003	-1.9898276E+000	0
6.074959846533602E+001	9.2219785E-003	-1.9394068E+000	0
6.076859846485604E+001	9.1456445E-003	-1.8893677E+000	0
6.078899846434069E+001	9.2792287E-003	-1.8388196E+000	0
6.081039846380008E+001	9.2219785E-003	-1.7884624E+000	0
6.083339846321906E+001	9.2219785E-003	-1.7379779E+000	0
6.085799846259761E+001	9.2219785E-003	-1.6870475E+000	0
6.088399846194079E+001	9.2983125E-003	-1.6363083E+000	0
6.091179846123850E+001	9.2983125E-003	-1.5860147E+000	0
6.094159846048569E+001	9.2983125E-003	-1.5354666E+000	0
6.097379845967225E+001	9.1456445E-003	-1.4854276E+000	0
6.100819845880324E+001	9.2792287E-003	-1.4352615E+000	0
6.104539845786348E+001	9.2601450E-003	-1.3852224E+000	0
6.108619845683279E+001	9.3173962E-003	-1.3344833E+000	0
6.113059845571115E+001	9.2410613E-003	-1.2843169E+000	0
6.117859845449857E+001	9.2792287E-003	-1.2340235E+000	0
6.123259845313441E+001	9.3746465E-003	-1.1834751E+000	0
6.129119845165405E+001	9.2028948E-003	-1.1328632E+000	0
6.135779844997160E+001	9.2028948E-003	-1.0826334E+000	0
6.143199844809715E+001	9.2219785E-003	-1.0321487E+000	0
6.151399844602565E+001	9.2219785E-003	-9.8121852E-001	0
6.160959844361059E+001	9.2219785E-003	-9.3105227E-001	0
6.171499844094797E+001	9.2028948E-003	-8.8069499E-001	0
6.183959843780031E+001	9.2601450E-003	-8.3052874E-001	0
6.197999843425350E+001	9.3746465E-003	-7.7991682E-001	0
6.214719843002968E+001	9.2410613E-003	-7.2936863E-001	0
6.234899842493178E+001	9.2219785E-003	-6.7932963E-001	0
6.258659841892950E+001	9.2601450E-003	-6.2929076E-001	0
6.287559841162874E+001	9.2601450E-003	-5.7925183E-001	0
6.322859840271121E+001	9.2410613E-003	-5.2876729E-001	0
6.367979839131294E+001	9.3746465E-003	-4.7828266E-001	0
6.431999837514013E+001	9.2028948E-003	-4.2824268E-001	0
6.505279835662805E+001	9.2219785E-003	-3.8307184E-001	0
6.505339835659834E+001	9.1647273E-003	-3.8187474E-001	0
6.615759832870390E+001	9.2410613E-003	-3.3183917E-001	0
6.773939828874427E+001	9.3746465E-003	-2.8181633E-001	0
7.014159822805959E+001	9.3173962E-003	-2.3178712E-001	0
7.424619812436868E+001	9.2028948E-003	-1.8177061E-001	0
8.263279791250534E+001	9.3173962E-003	-1.3169047E-001	0
9.263279765988409E+001	9.2601450E-003	-1.0157231E-001	0
1.026327974072628E+002	9.2028948E-003	-8.2170635E-002	0
1.126327971546416E+002	9.3364790E-003	-7.0518173E-002	0
1.226327969020203E+002	9.2601450E-003	-6.1813831E-002	0
1.326327966493991E+002	9.2028948E-003	-5.5662859E-002	0
1.426327963967778E+002	9.3173962E-003	-5.0708961E-002	0
1.526327961441566E+002	9.3364790E-003	-4.6512801E-002	0
1.626327958915354E+002	9.2792287E-003	-4.3768585E-002	0
1.726327956389141E+002	9.2219785E-003	-4.1021064E-002	0
1.826327953862929E+002	9.2792287E-003	-3.8547274E-002	0
1.926327951336716E+002	9.2219785E-003	-3.6543291E-002	0
2.026327948810504E+002	9.2219785E-003	-3.4613784E-002	0
2.126327946284291E+002	9.2028948E-003	-3.2976475E-002	0
2.226327943758079E+002	9.2028948E-003	-3.1628814E-002	0
2.326327941231866E+002	9.2219785E-003	-3.0322531E-002	0
2.426327938705654E+002	9.3364790E-003	-2.9058263E-002	0
2.526327936179441E+002	9.2983125E-003	-2.7966512E-002	0
2.626327933653229E+002	9.2410613E-003	-2.7076559E-002	0
2.726327931127016E+002	9.2219785E-003	-2.6001358E-002	0
2.826327928600804E+002	9.1647273E-003	-2.5177613E-002	0
2.926327926074591E+002	9.3173962E-003	-2.4528928E-002	0
3.026327923548379E+002	9.2410613E-003	-2.3644067E-002	0
3.126327921022166E+002	9.2983125E-003	-2.3068590E-002	0
3.226327918495954E+002	9.1838110E-003	-2.2381710E-002	0
3.326327915969741E+002	9.2601450E-003	-2.1781404E-002	0
3.426327913443529E+002	9.2028948E-003	-2.1244759E-002	0
3.526327910917316E+002	9.3173962E-003	-2.0750130E-002	0
3.626327908391104E+002	9.2601450E-003	-2.0149188E-002	0
3.726327905864891E+002	9.2219785E-003	-1.9711848E-002	0
3.826327903338679E+002	9.3364790E-003	-1.9167565E-002	0
3.926327900812466E+002	9.1265608E-003	-1.8760785E-002	0
4.026327898286254E+002	9.2983125E-003	-1.8406842E-002	0
4.126327895760041E+002	9.2410613E-003	-1.7857464E-002	0
4.226327893233829E+002	9.2219785E-003	-1.7602829E-002	0
4.326327890707616E+002	9.3173962E-003	-1.7236788E-002	0
4.426327888181404E+002	9.2028948E-003	-1.6842740E-002	0
4.526327885655191E+002	9.2601450E-003	-1.6528264E-002	0
4.626327883128979E+002	9.2410613E-003	-1.6125940E-002	0
4.726327880602767E+002	9.2792287E-003	-1.5930505E-002	0
4.826327878076554E+002	9.2410613E-003	-1.5542186E-002	0
4.926327875550342E+002	9.2792287E-003	-1.5221345E-002	0
5.026327873024129E+002	9.2601450E-003	-1.4967347E-002	0
5.126327870497917E+002	9.1647273E-003	-1.4699978E-002	0
5.226327867971704E+002	9.3173962E-003	-1.4459983E-002	0
5.326327865445492E+002	9.3173962E-003	-1.4186886E-002	0
5.426327862919279E+002	9.2028948E-003	-1.3845675E-002	0
5.526327860393067E+002	9.2410613E-003	-1.3727268E-002	0
5.626327857866854E+002	9.2410613E-003	-1.3378418E-002	0
5.726327855340642E+002	9.3173962E-003	-1.3153701E-002	0
5.826327852814429E+002	9.2028948E-003	-1.2952539E-002	0
5.926327850288217E+002	9.2219785E-003	-1.2776203E-002	0
6.026327847762004E+002	9.1838110E-003	-1.2610054E-002	0
6.126327845235792E+002	9.2219785E-003	-1.2298124E-002	0
6.226327842709579E+002	9.2792287E-003	-1.2128792E-002	0
6.326327840183367E+002	9.2601450E-003	-1.2007203E-002	0
6.426327837657154E+002	9.1647273E-003	-1.1805403E-002	0
6.526327835130942E+002	9.2028948E-003	-1.1708005E-002	0
6.626327832604729E+002	9.1647273E-003	-1.1490291E-002	0
6.726327830078517E+002	9.0693096E-003	-1.1310773E-002	0
6.826327827552304E+002	9.2410613E-003	-1.1129982E-002	0
6.926327825026092E+002	9.2410613E-003	-1.0956192E-002	0
7.026327822499879E+002	9.1838110E-003	-1.0777947E-002	0
7.126327819973667E+002	9.2028948E-003	-1.0631532E-002	0
7.226327817447454E+002	9.1838110E-003	-1.0544320E-002	0
7.326327814921242E+002	9.2601450E-003	-1.0465382E-002	0
7.426327812395029E+002	9.2792287E-003	-1.0189738E-002	0
7.526327809868817E+002	9.2410613E-003	-1.0052234E-002	0
7.626327807342605E+002	9.3173962E-003	-9.9758431E-003	0
7.726327804816392E+002	9.2410613E-003	-9.8708058E-003	0
7.826327802290180E+002	9.1838110E-003	-9.6830120E-003	0
7.926327799763967E+002	9.2792287E-003	-9.5658805E-003	0
8.026327797237755E+002	9.2219785E-003	-9.4423806E-003	0
8.126327794711542E+002	9.2410613E-003	-9.3481662E-003	0
8.226327792185330E+002	9.2410613E-003	-9.2042964E-003	0
8.326327789659117E+002	9.2219785E-003	-9.1552800E-003	0
8.426327787132905E+002	9.1265608E-003	-9.0311440E-003	0
8.526327784606692E+002	9.2219785E-003	-8.7555004E-003	0
8.626327782080480E+002	9.2219785E-003	-8.7593207E-003	0
8.726327779554267E+002	9.2792287E-003	-8.5600680E-003	0
8.826327777028055E+002	9.2601450E-003	-8.5613411E-003	0
8.926327774501842E+002	9.2601450E-003	-8.5696159E-003	0
9.026327771975630E+002	9.2792287E-003	-8.4333867E-003	0
9.126327769449417E+002	9.1838110E-003	-8.3105247E-003	0
9.226327766923205E+002	9.2601450E-003	-8.2239481E-003	0
9.326327764396992E+002	9.1647273E-003	-8.1532858E-003	0
9.426327761870780E+002	9.2219785E-003	-8.0807153E-003	0
9.526327759344567E+002	9.2601450E-003	-8.0189658E-003	0
9.626327756818355E+002	9.2028948E-003	-7.8572724E-003	0
9.726327754292142E+002	9.2792287E-003	-7.7471421E-003	0
9.826327751765930E+002	9.2028948E-003	-7.6554734E-003	0
9.926327749239717E+002	9.2601450E-003	-7.6191882E-003	0
1.002632774671350E+003	9.1838110E-003	-7.5230622E-003	0
1.012632774418729E+003	9.2792287E-003	-7.4218451E-003	0
1.022632774166108E+003	9.2219785E-003	-7.4969623E-003	0
1.032632773913487E+003	9.2983125E-003	-7.2607878E-003	0
1.042632773660866E+003	9.2028948E-003	-7.2391434E-003	0
1.052632773408244E+003	9.2792287E-003	-7.1232845E-003	0
1.062632773155623E+003	9.2983125E-003	-7.1143718E-003	0
1.072632772903002E+003	9.3173962E-003	-7.1385624E-003	0
1.082632772650381E+003	9.2601450E-003	-7.0137908E-003	0
1.092632772397759E+003	9.2219785E-003	-6.9132093E-003	0
1.102632772145138E+003	9.2410613E-003	-6.8361820E-003	0
1.112632771892517E+003	9.2410613E-003	-6.8463674E-003	0
1.122632771639896E+003	9.1838110E-003	-6.8119918E-003	0
1.132632771387274E+003	9.2601450E-003	-6.6356566E-003	0
1.142632771134653E+003	9.3364790E-003	-6.6127391E-003	0
1.152632770882032E+003	9.2983125E-003	-6.5439874E-003	0
1.162632770629411E+003	9.2410613E-003	-6.4835111E-003	0
1.172632770376789E+003	9.2601450E-003	-6.4733257E-003	0
1.182632770124168E+003	9.2983125E-003	-6.3211811E-003	0
1.192632769871547E+003	9.2028948E-003	-6.2651606E-003	0
1.202632769618926E+003	9.2028948E-003	-6.2148701E-003	0
1.212632769366304E+003	9.1456445E-003	-6.2053218E-003	0
1.222632769113683E+003	9.0883933E-003	-6.1932262E-003	0
1.232632768861062E+003	9.3364790E-003	-6.1696731E-003	0
1.242632768608441E+003	9.2792287E-003	-5.9182197E-003	0
1.252632768355819E+003	9.1265608E-003	-5.9443200E-003	0
1.262632768103198E+003	9.1074770E-003	-5.8634728E-003	0
1.272632767850577E+003	9.3746465E-003	-5.8144554E-003	0
1.282632767597956E+003	9.1838110E-003	-5.8099991E-003	0
1.292632767345334E+003	9.2983125E-003	-5.7259696E-003	0
1.302632767092713E+003	9.2410613E-003	-5.7590720E-003	0
1.312632766840092E+003	9.2983125E-003	-5.6890473E-003	0
1.322632766587471E+003	9.1074770E-003	-5.6680399E-003	0
1.332632766334849E+003	9.3364790E-003	-5.6514880E-003	0
1.342632766082228E+003	9.1838110E-003	-5.5432683E-003	0
1.352632765829607E+003	9.2028948E-003	-5.5228970E-003	0
1.362632765576986E+003	9.1647273E-003	-5.5381753E-003	0
1.372632765324364E+003	9.2219785E-003	-5.4127672E-003	0
1.382632765071743E+003	9.2792287E-003	-5.2886317E-003	0
1.392632764819122E+003	9.1074770E-003	-5.2319756E-003	0
1.402632764566501E+003	9.2792287E-003	-5.2841757E-003	0
1.412632764313879E+003	9.1838110E-003	-5.1390333E-003	0
1.422632764061258E+003	9.2410613E-003	-5.2338853E-003	0
1.432632763808637E+003	9.2028948E-003	-5.1046577E-003	0
1.442632763556016E+003	9.2410613E-003	-5.0581861E-003	0
1.452632763303394E+003	9.2410613E-003	-5.0180811E-003	0
1.462632763050773E+003	9.2219785E-003	-5.0238105E-003	0
1.472632762798152E+003	9.1838110E-003	-5.0002565E-003	0
1.482632762545531E+003	9.3555627E-003	-4.8468388E-003	0
1.492632762292909E+003	9.2601450E-003	-4.8417458E-003	0
1.502632762040288E+003	9.2219785E-003	-4.9130437E-003	0
1.512632761787667E+003	9.3173962E-003	-4.7672647E-003	0
1.522632761535046E+003	9.1838110E-003	-4.7736303E-003	0
1.532632761282424E+003	9.2410613E-003	-4.6609542E-003	0
1.542632761029803E+003	9.1456445E-003	-4.6940572E-003	0
1.552632760777182E+003	9.2601450E-003	-4.6609542E-003	0
1.562632760524561E+003	9.2028948E-003	-4.7723576E-003	0
1.572632760271939E+003	9.1456445E-003	-4.5425482E-003	0
1.582632760019318E+003	9.2601450E-003	-4.4935313E-003	0
1.592632759766697E+003	9.1838110E-003	-4.5401347E-003	0
1.602632759514076E+003	9.2219785E-003	-4.4958801E-003	0
1.612632759261454E+003	9.2410613E-003	-4.4821901E-003	0
1.622632759008833E+003	9.2410613E-003	-4.4270479E-003	0
1.632632758756212E+003	9.1265608E-003	-4.3834941E-003	0
1.642632758503591E+003	9.3173962E-003	-4.3471996E-003	0
1.652632758250969E+003	9.2983125E-003	-4.3255500E-003	0
1.662632757998348E+003	9.2792287E-003	-4.3112868E-003	0
1.672632757745727E+003	9.2792287E-003	-4.2970870E-003	0
1.682632757493106E+003	9.2219785E-003	-4.2093429E-003	0
1.692632757240484E+003	9.1838110E-003	-4.1995370E-003	0
1.702632756987863E+003	9.2028948E-003	-4.1816444E-003	0
1.712632756735242E+003	9.2410613E-003	-4.1130027E-003	0
1.722632756482621E+003	9.2410613E-003	-4.1086092E-003	0
1.732632756229999E+003	9.1838110E-003	-4.0802741E-003	0
1.742632755977378E+003	9.2410613E-003	-4.0579238E-003	0
1.752632755724757E+003	9.2601450E-003	-4.0004891E-003	0
1.762632755472136E+003	9.1838110E-003	-3.9975606E-003	0
1.772632755219514E+003	9.2792287E-003	-3.9508226E-003	0
1.782632754966893E+003	9.2219785E-003	-3.9501861E-003	0
1.792632754714272E+003	9.2028948E-003	-3.9074598E-003	0
1.802632754461651E+003	9.3555627E-003	-3.8924327E-003	0
1.812632754209029E+003	9.2028948E-003	-3.8360804E-003	0
1.822632753956408E+003	9.2028948E-003	-3.8065354E-003	0
1.832632753703787E+003	9.2792287E-003	-3.7912533E-003	0
1.842632753451166E+003	9.1838110E-003	-3.7649553E-003	0
1.852632753198544E+003	9.2028948E-003	-3.7523475E-003	0
1.862632752945923E+003	9.2792287E-003	-3.7157985E-003	0
1.872632752693302E+003	9.2028948E-003	-3.7147796E-003	0
1.882632752440681E+003	9.3173962E-003	-3.6709080E-003	0
1.892632752188059E+003	9.2983125E-003	-3.6697616E-003	0
1.902632751935438E+003	9.2410613E-003	-3.6479847E-003	0
1.912632751682817E+003	9.3173962E-003	-3.6018204E-003	0
1.922632751430196E+003	9.2983125E-003	-3.5554012E-003	0
1.932632751177574E+003	9.2028948E-003	-3.5440035E-003	0
1.942632750924953E+003	9.2219785E-003	-3.5075177E-003	0
1.952632750672332E+003	9.2219785E-003	-3.5169418E-003	0
1.962632750419711E+003	9.1265608E-003	-3.4821115E-003	0
1.972632750167089E+003	9.3364790E-003	-3.4785457E-003	0
1.982632749914468E+003	9.3173962E-003	-3.4255043E-003	0
1.992632749661847E+003	9.2028948E-003	-3.4093310E-003	0
2.002632749409226E+003	9.1838110E-003	-3.3759018E-003	0
2.012632749156604E+003	9.2601450E-003	-3.3610016E-003	0
2.022632748903983E+003	9.2410613E-003	-3.3493491E-003	0
2.032632748651362E+003	9.2410613E-003	-3.3448285E-003	0
2.042632748398741E+003	9.2028948E-003	-3.3126725E-003	0
2.052632748146119E+003	9.2410613E-003	-3.2754864E-003	0
2.062632747893498E+003	9.2410613E-003	-3.2714109E-003	0
2.072632747640877E+003	9.2219785E-003	-3.2428212E-003	0
2.082632747388256E+003	9.3746465E-003	-3.2273482E-003	0
2.092632747135634E+003	9.2410613E-003	-3.2110473E-003	0
2.102632746883013E+003	9.2410613E-003	-3.1776179E-003	0
2.112632746630392E+003	9.1838110E-003	-3.1704227E-003	0
2.122632746377771E+003	9.1647273E-003	-3.1734155E-003	0
2.132632746125149E+003	9.1647273E-003	-3.1322814E-003	0
2.142632745872528E+003	9.2219785E-003	-3.1149620E-003	0
2.152632745619907E+003	9.2601450E-003	-3.0859262E-003	0
2.162632745367286E+003	9.2792287E-003	-3.0766930E-003	0
2.172632745114664E+003	9.3364790E-003	-3.0675880E-003	0
2.182632744862043E+003	9.2601450E-003	-3.0374059E-003	0
2.192632744609422E+003	9.2601450E-003	-3.0393798E-003	0
2.202632744356801E+003	9.2601450E-003	-2.9857655E-003	0
2.212632744104179E+003	9.1838110E-003	-2.9850653E-003	0
2.222632743851558E+003	9.2219785E-003	-2.9471149E-003	0
2.232632743598937E+003	9.2219785E-003	-2.9439311E-003	0
2.242632743346316E+003	9.1265608E-003	-2.9275029E-003	0
2.252632743093694E+003	9.2219785E-003	-2.8704503E-003	0
2.262632742841073E+003	9.3173962E-003	-2.8941373E-003	0
2.272632742588452E+003	9.2028948E-003	-2.8682852E-003	0
2.282632742335831E+003	9.1647273E-003	-2.8677760E-003	0
2.292632742083209E+003	9.2601450E-003	-2.8176638E-003	0
2.302632741830588E+003	9.1838110E-003	-2.8364479E-003	0
2.312632741577967E+003	9.2219785E-003	-2.7986250E-003	0
2.322632741325346E+003	9.2601450E-003	-2.7781215E-003	0
2.332632741072724E+003	9.4318967E-003	-2.7692071E-003	0
2.342632740820103E+003	9.1838110E-003	-2.7338674E-003	0
2.352632740567482E+003	9.2983125E-003	-2.7299831E-003	0
2.362632740314861E+003	9.2219785E-003	-2.7120267E-003	0
2.372632740062239E+003	9.2028948E-003	-2.7099894E-003	0
2.382632739809618E+003	9.3364790E-003	-2.7026667E-003	0
2.392632739556997E+003	9.2601450E-003	-2.6929246E-003	0
2.402632739304376E+003	9.2219785E-003	-2.6508353E-003	0
2.412632739051754E+003	9.3173962E-003	-2.6440220E-003	0
2.422632738799133E+003	9.2028948E-003	-2.6349167E-003	0
2.432632738546512E+003	9.1074770E-003	-2.6235823E-003	0
2.442632738293891E+003	9.2410613E-003	-2.6135854E-003	0
2.452632738041269E+003	9.0883933E-003	-2.6127577E-003	0
2.462632737788648E+003	9.2219785E-003	-2.6174695E-003	0
2.472632737536027E+003	9.3173962E-003	-2.5918724E-003	0
2.482632737283406E+003	9.2792287E-003	-2.5406778E-003	0
2.492632737030784E+003	9.2410613E-003	-2.5341827E-003	0
2.502632736778163E+003	9.2983125E-003	-2.5196015E-003	0
2.512632736525542E+003	9.2792287E-003	-2.5275608E-003	0
2.522632736272921E+003	9.2028948E-003	-2.5048289E-003	0
2.532632736020299E+003	9.2601450E-003	-2.5099865E-003	0
2.542632735767678E+003	9.1838110E-003	-2.4656688E-003	0
2.552632735515057E+003	9.3173962E-003	-2.4691708E-003	0
2.562632735262436E+003	9.2028948E-003	-2.4448470E-003	0
2.572632735009815E+003	9.2219785E-003	-2.3981733E-003	0
2.582632734757193E+003	9.2601450E-003	-2.4117997E-003	0
2.592632734504572E+003	9.2410613E-003	-2.3970909E-003	0
2.602632734251951E+003	9.2792287E-003	-2.3722576E-003	0
2.612632733999330E+003	9.2792287E-003	-2.3860750E-003	0
2.622632733746708E+003	9.1647273E-003	-2.3545560E-003	0
2.632632733494087E+003	9.2028948E-003	-2.3265390E-003	0
2.642632733241466E+003	9.2410613E-003	-2.3424579E-003	0
2.652632732988845E+003	9.2792287E-003	-2.3067363E-003	0
2.662632732736223E+003	9.1838110E-003	-2.3158416E-003	0
2.672632732483602E+003	9.2601450E-003	-2.3068634E-003	0
2.682632732230981E+003	9.2601450E-003	-2.2940647E-003	0
2.692632731978360E+003	9.2410613E-003	-2.2621637E-003	0
2.702632731725738E+003	9.2601450E-003	-2.2576428E-003	0
2.712632731473117E+003	9.2410613E-003	-2.2522302E-003	0
2.722632731220496E+003	9.2601450E-003	-2.2760448E-003	0
2.732632730967875E+003	9.2792287E-003	-2.2349744E-003	0
2.742632730715253E+003	9.1838110E-003	-2.2126881E-003	0
2.752632730462632E+003	9.3173962E-003	-2.1835251E-003	0
2.762632730210011E+003	9.2410613E-003	-2.1753747E-003	0
2.772632729957390E+003	9.2601450E-003	-2.1787495E-003	0
2.782632729704768E+003	9.2410613E-003	-2.1583736E-003	0
2.792632729452147E+003	9.2410613E-003	-2.1492043E-003	0
2.802632729199526E+003	9.2601450E-003	-2.1099807E-003	0
2.812632728946905E+003	9.2410613E-003	-2.1398440E-003	0
2.822632728694283E+003	9.2792287E-003	-2.1139921E-003	0
2.832632728441662E+003	9.2410613E-003	-2.1279370E-003	0
2.842632728189041E+003	9.2983125E-003	-2.1011296E-003	0
2.852632727936420E+003	9.2028948E-003	-2.0908143E-003	0
2.862632727683798E+003	9.2601450E-003	-2.0792254E-003	0
2.872632727431177E+003	9.2219785E-003	-2.0605051E-003	0
2.882632727178556E+003	9.2792287E-003	-2.0410207E-003	0
2.892632726925935E+003	9.1265608E-003	-2.0284129E-003	0
2.902632726673313E+003	9.1838110E-003	-2.0421667E-003	0
2.912632726420692E+003	9.2601450E-003	-2.0345256E-003	0
2.922632726168071E+003	9.2601450E-003	-2.0142135E-003	0
2.932632725915450E+003	9.2792287E-003	-1.9948564E-003	0
2.942632725662828E+003	9.2410613E-003	-1.9762630E-003	0
2.952632725410207E+003	9.2219785E-003	-1.9968301E-003	0
2.962632725157586E+003	9.3364790E-003	-1.9779187E-003	0
2.972632724904965E+003	9.2028948E-003	-1.9367846E-003	0
2.982632724652343E+003	9.1647273E-003	-1.9866421E-003	0
2.992632724399722E+003	9.3364790E-003	-1.9177458E-003	0
3.002632724147101E+003	9.2219785E-003	-1.9503474E-003	0
3.012632723894480E+003	9.2410613E-003	-1.9529579E-003	0
3.022632723641858E+003	9.2792287E-003	-1.8985798E-003	0
3.032632723389237E+003	9.2410613E-003	-1.9430885E-003	0
3.042632723136616E+003	9.3937302E-003	-1.8921485E-003	0
3.052632722883995E+003	9.2792287E-003	-1.8967331E-003	0
3.062632722631373E+003	9.2410613E-003	-1.8841891E-003	0
3.072632722378752E+003	9.2792287E-003	-1.8735555E-003	0
3.082632722126131E+003	9.2028948E-003	-1.8668696E-003	0
3.092632721873510E+003	9.2792287E-003	-1.8609478E-003	0
3.102632721620888E+003	9.2601450E-003	-1.8490405E-003	0
3.112632721368267E+003	9.2983125E-003	-1.8511418E-003	0
3.122632721115646E+003	9.2028948E-003	-1.8265634E-003	0
3.132632720863025E+003	9.1265608E-003	-1.8025578E-003	0
3.142632720610403E+003	9.2028948E-003	-1.8228065E-003	0
3.152632720357782E+003	9.2410613E-003	-1.8262449E-003	0
3.162632720105161E+003	9.1456445E-003	-1.8159932E-003	0
3.172632719852540E+003	9.3364790E-003	-1.8299380E-003	0
3.182632719599918E+003	9.2219785E-003	-1.7765785E-003	0
3.192632719347297E+003	9.2219785E-003	-1.7763239E-003	0
3.202632719094676E+003	9.1647273E-003	-1.7583037E-003	0
3.212632718842055E+003	9.2410613E-003	-1.7691922E-003	0
3.222632718589433E+003	9.2792287E-003	-1.7515542E-003	0
3.232632718336812E+003	9.2792287E-003	-1.7640345E-003	0
3.242632718084191E+003	9.2410613E-003	-1.7312419E-003	0
3.252632717831570E+003	9.3173962E-003	-1.7491345E-003	0
3.262632717578948E+003	9.2219785E-003	-1.7352535E-003	0
3.272632717326327E+003	9.2601450E-003	-1.7371000E-003	0
3.282632717073706E+003	9.2410613E-003	-1.7276126E-003	0
3.292632716821085E+003	9.2601450E-003	-1.7072365E-003	0
3.302632716568463E+003	9.2983125E-003	-1.7116937E-003	0
3.312632716315842E+003	9.2219785E-003	-1.7127126E-003	0
3.322632716063221E+003	9.2410613E-003	-1.6789011E-003	0
3.332632715810600E+003	9.2219785E-003	-1.7081916E-003	0
3.342632715557978E+003	9.1074770E-003	-1.6654020E-003	0
3.352632715305357E+003	9.1456445E-003	-1.6657840E-003	0
3.362632715052736E+003	9.2028948E-003	-1.6730430E-003	0
3.372632714800115E+003	9.2792287E-003	-1.6534949E-003	0
3.382632714547493E+003	9.1838110E-003	-1.6321638E-003	0
3.392632714294872E+003	9.2601450E-003	-1.6183463E-003	0
3.402632714042251E+003	9.2028948E-003	-1.6371303E-003	0
3.412632713789630E+003	9.2983125E-003	-1.6261784E-003	0
3.422632713537008E+003	9.2792287E-003	-1.6122971E-003	0
3.432632713284387E+003	9.2410613E-003	-1.5982249E-003	0
3.442632713031766E+003	9.1838110E-003	-1.6014724E-003	0
3.452632712779145E+003	9.1647273E-003	-1.5834523E-003	0
3.462632712526523E+003	9.1456445E-003	-1.6048473E-003	0
3.472632712273902E+003	9.2028948E-003	-1.5735191E-003	0
3.482632712021281E+003	9.2601450E-003	-1.5935767E-003	0
3.492632711768660E+003	9.2410613E-003	-1.5452475E-003	0
3.502632711516038E+003	9.2028948E-003	-1.5366514E-003	0
3.512632711263417E+003	9.2410613E-003	-1.5399625E-003	0
3.522632711010796E+003	9.2410613E-003	-1.5441014E-003	0
3.532632710758175E+003	9.2410613E-003	-1.5549897E-003	0
3.542632710505553E+003	9.1647273E-003	-1.5181220E-003	0
3.552632710252932E+003	9.2219785E-003	-1.5439104E-003	0
3.562632710000311E+003	9.2028948E-003	-1.5324489E-003	0
3.572632709747690E+003	9.2028948E-003	-1.5021395E-003	0
3.582632709495068E+003	9.2792287E-003	-1.5191407E-003	0
3.592632709242447E+003	9.1838110E-003	-1.5211148E-003	0
3.602632708989826E+003	9.1838110E-003	-1.5022670E-003	0
3.612632708737205E+003	9.2028948E-003	-1.4890225E-003	0
3.622632708484583E+003	9.2792287E-003	-1.4780704E-003	0
3.632632708231962E+003	9.2028948E-003	-1.4931613E-003	0
3.642632707979341E+003	9.2219785E-003	-1.4965362E-003	0
3.652632707726720E+003	9.2410613E-003	-1.4639983E-003	0
3.662632707474098E+003	9.1647273E-003	-1.4714482E-003	0
3.672632707221477E+003	9.3937302E-003	-1.4622154E-003	0
3.682632706968856E+003	9.1647273E-003	-1.4536829E-003	0
3.692632706716235E+003	9.1456445E-003	-1.4638073E-003	0
3.702632706463613E+003	9.1265608E-003	-1.4375095E-003	0
3.712632706210992E+003	9.2410613E-003	-1.4658448E-003	0
3.722632705958371E+003	9.2028948E-003	-1.4370001E-003	0
3.732632705705750E+003	9.2410613E-003	-1.4133131E-003	0
3.742632705453128E+003	9.2028948E-003	-1.4103840E-003	0
3.752632705200507E+003	9.2792287E-003	-1.4327338E-003	0
3.762632704947886E+003	9.2792287E-003	-1.4040802E-003	0
3.772632704695265E+003	9.2601450E-003	-1.4080916E-003	0
3.782632704442643E+003	9.2601450E-003	-1.4112117E-003	0
3.792632704190022E+003	9.2410613E-003	-1.3779098E-003	0
3.802632703937401E+003	9.4128130E-003	-1.3960571E-003	0
3.812632703684780E+003	9.2601450E-003	-1.3977765E-003	0
3.822632703432158E+003	9.2028948E-003	-1.3896896E-003	0
3.832632703179537E+003	9.2219785E-003	-1.3696958E-003	0
3.842632702926916E+003	9.2219785E-003	-1.3735798E-003	0
3.852632702674295E+003	9.2792287E-003	-1.3861239E-003	0
3.862632702421673E+003	9.1838110E-003	-1.3752355E-003	0
3.872632702169052E+003	9.2410613E-003	-1.3623094E-003	0
3.882632701916431E+003	9.3173962E-003	-1.3920456E-003	0
3.892632701663810E+003	9.1647273E-003	-1.3553052E-003	0
3.902632701411188E+003	9.2028948E-003	-1.3281159E-003	0
3.912632701158567E+003	9.2028948E-003	-1.3377309E-003	0
3.922632700905946E+003	9.2792287E-003	-1.3626915E-003	0
3.932632700653325E+003	9.2219785E-003	-1.3125794E-003	0
3.942632700400703E+003	9.2983125E-003	-1.3088861E-003	0
3.952632700148082E+003	9.2792287E-003	-1.3168455E-003	0
3.962632699895461E+003	9.2601450E-003	-1.3334646E-003	0
3.972632699642840E+003	9.2028948E-003	-1.3583616E-003	0
3.982632699390218E+003	9.2601450E-003	-1.3083131E-003	0
3.992632699137597E+003	9.2219785E-003	-1.3246139E-003	0
4.002632698884976E+003	9.3364790E-003	-1.3102232E-003	0
4.012632698632355E+003	9.3364790E-003	-1.2857085E-003	0
4.022632698379733E+003	9.1838110E-003	-1.3130887E-003	0
4.032632698127112E+003	9.1838110E-003	-1.2863453E-003	0
4.042632697874491E+003	9.2792287E-003	-1.3221306E-003	0
4.052632697621870E+003	9.2792287E-003	-1.2708085E-003	0
4.062632697369248E+003	9.2219785E-003	-1.2850717E-003	0
4.072632697116627E+003	9.2792287E-003	-1.2560997E-003	0
4.082632696864006E+003	9.2219785E-003	-1.2645047E-003	0
4.092632696611385E+003	9.2601450E-003	-1.2632312E-003	0
4.102632696446031E+003	9.2028948E-003	-1.2610663E-003	0
4.112632696324959E+003	9.2410613E-003	-1.2571184E-003	0
4.122632696203887E+003	9.1838110E-003	-1.2599201E-003	0
4.132632696082816E+003	9.2983125E-003	-1.2535527E-003	0
4.142632695961744E+003	9.2792287E-003	-1.2350233E-003	0
4.152632695840672E+003	9.1647273E-003	-1.2263635E-003	0
4.162632695719600E+003	9.2410613E-003	-1.2343228E-003	0
4.172632695598528E+003	9.2219785E-003	-1.2299930E-003	0
4.182632695477456E+003	9.2219785E-003	-1.2620215E-003	0
4.192632695356384E+003	9.2219785E-003	-1.2076431E-003	0
4.202632695235312E+003	9.2983125E-003	-1.2244532E-003	0
4.212632695114240E+003	9.2601450E-003	-1.2262998E-003	0
4.222632694993168E+003	9.2601450E-003	-1.2029312E-003	0
4.232632694872096E+003	9.2601450E-003	-1.2116546E-003	0
4.242632694751024E+003	9.2792287E-003	-1.2098080E-003	0
4.252632694629952E+003	9.1838110E-003	-1.1819184E-003	0
4.262632694508880E+003	9.1838110E-003	-1.1841470E-003	0
4.272632694387808E+003	9.2410613E-003	-1.1924248E-003	0
4.282632694266737E+003	9.2219785E-003	-1.1875217E-003	0
4.292632694145665E+003	9.2219785E-003	-1.2178947E-003	0
4.302632694024593E+003	9.2792287E-003	-1.1881585E-003	0
4.312632693903521E+003	9.1647273E-003	-1.1724308E-003	0
4.322632693782449E+003	9.2028948E-003	-1.1749142E-003	0
4.332632693661377E+003	9.1647273E-003	-1.1555570E-003	0
4.342632693540305E+003	9.2219785E-003	-1.1818548E-003	0
4.352632693419233E+003	9.1647273E-003	-1.1825551E-003	0
4.362632693298161E+003	9.1647273E-003	-1.1824915E-003	0
4.372632693177089E+003	9.2028948E-003	-1.1633890E-003	0
4.382632693056017E+003	9.2410613E-003	-1.1744048E-003	0
4.392632692934945E+003	9.2028948E-003	-1.1379827E-003	0
4.402632692813873E+003	9.2219785E-003	-1.1772701E-003	0
4.412632692692801E+003	9.2410613E-003	-1.1645989E-003	0
4.422632692571729E+003	9.2028948E-003	-1.1518002E-003	0
4.432632692450657E+003	9.2410613E-003	-1.1379190E-003	0
4.442632692329586E+003	9.3173962E-003	-1.1557480E-003	0
4.452632692208514E+003	9.3364790E-003	-1.1387469E-003	0
4.462632692087442E+003	9.1456445E-003	-1.1356267E-003	0
4.472632691966370E+003	9.2028948E-003	-1.1481070E-003	0
4.482632691845298E+003	9.1647273E-003	-1.1072278E-003	0
4.492632691724226E+003	9.2410613E-003	-1.1053175E-003	0
4.502632691603154E+003	9.2601450E-003	-1.1084374E-003	0
4.512632691482082E+003	9.1647273E-003	-1.1172246E-003	0
4.522632691361010E+003	9.2601450E-003	-1.1206631E-003	0
4.532632691239938E+003	9.2601450E-003	-1.1137226E-003	0
4.542632691118866E+003	9.2792287E-003	-1.0964667E-003	0
4.552632690997794E+003	9.2028948E-003	-1.1076097E-003	0
4.562632690876722E+003	9.3173962E-003	-1.1056358E-003	0
4.572632690755650E+003	9.2601450E-003	-1.1063362E-003	0
4.582632690634578E+003	9.2983125E-003	-1.1404661E-003	0
4.592632690513507E+003	9.1647273E-003	-1.0881888E-003	0
4.602632690392435E+003	9.2219785E-003	-1.1019426E-003	0
4.612632690271363E+003	9.2028948E-003	-1.0876157E-003	0
4.622632690150291E+003	9.2410613E-003	-1.0981221E-003	0
4.632632690029219E+003	9.1647273E-003	-1.0822670E-003	0
4.642632689908147E+003	9.2410613E-003	-1.0729069E-003	0
4.652632689787075E+003	9.2219785E-003	-1.0643108E-003	0
4.662632689666003E+003	9.0883933E-003	-1.0806753E-003	0
4.672632689544931E+003	9.2028948E-003	-1.0950022E-003	0
4.682632689423859E+003	9.2601450E-003	-1.0716971E-003	0
4.692632689302787E+003	9.2028948E-003	-1.0811209E-003	0
4.702632689181715E+003	9.2028948E-003	-1.0487104E-003	0
4.712632689060643E+003	9.2601450E-003	-1.0692138E-003	0
4.722632688939571E+003	9.2601450E-003	-1.0706146E-003	0
4.732632688818499E+003	9.1647273E-003	-1.0415788E-003	0
4.742632688697428E+003	9.1456445E-003	-1.0636740E-003	0
4.752632688576356E+003	9.2219785E-003	-1.0424065E-003	0
4.762632688455284E+003	9.2410613E-003	-1.0642471E-003	0
4.772632688334212E+003	9.2601450E-003	-1.0752629E-003	0
4.782632688213140E+003	9.1456445E-003	-1.0529767E-003	0
4.792632688092068E+003	9.2219785E-003	-1.0361664E-003	0
4.802632687970996E+003	9.1647273E-003	-1.0382677E-003	0
4.812632687849924E+003	9.1838110E-003	-1.0450173E-003	0
4.822632687728852E+003	9.2219785E-003	-1.0229857E-003	0
4.832632687607780E+003	9.2601450E-003	-1.0455267E-003	0
4.842632687486708E+003	9.2792287E-003	-1.0238135E-003	0
4.852632687365636E+003	9.2410613E-003	-1.0388409E-003	0
4.862632687244564E+003	9.2983125E-003	-1.0453357E-003	0
4.872632687123492E+003	9.2219785E-003	-1.0206933E-003	0
4.882632687002420E+003	9.2410613E-003	-9.9388626E-004	0
4.892632686881348E+003	9.3173962E-003	-1.0251506E-003	0
4.902632686760277E+003	9.2028948E-003	-9.8427141E-004	0
4.912632686639205E+003	9.2410613E-003	-1.0326006E-003	0
4.922632686518133E+003	9.2601450E-003	-9.9223072E-004	0
4.932632686397061E+003	9.2601450E-003	-1.0083405E-003	0
4.942632686275989E+003	9.2792287E-003	-9.8630891E-004	0
4.952632686154917E+003	9.2601450E-003	-9.9611492E-004	0
4.962632686033845E+003	9.2028948E-003	-9.9165761E-004	0
4.972632685912773E+003	9.2983125E-003	-1.0097413E-003	0
4.982632685791701E+003	9.2219785E-003	-1.0173824E-003	0
4.992632685670629E+003	9.1838110E-003	-9.9267648E-004	0
5.002632685549557E+003	9.2028948E-003	-9.9312223E-004	0
5.012632685428485E+003	9.1838110E-003	-1.0195472E-003	0
5.022632685307413E+003	9.2219785E-003	-9.9299487E-004	0
5.032632685186341E+003	9.2410613E-003	-9.9356787E-004	0
5.042632685065269E+003	9.1265608E-003	-9.9025678E-004	0
5.052632684944198E+003	9.3555627E-003	-9.8847388E-004	0
5.062632684823126E+003	9.1647273E-003	-9.6886203E-004	0
5.072632684702054E+003	9.2792287E-003	-9.8070560E-004	0
5.082632684580982E+003	9.2792287E-003	-9.6039323E-004	0
5.092632684459910E+003	9.3364790E-003	-9.6854358E-004	0
5.102632684338838E+003	9.2792287E-003	-9.4893179E-004	0
5.112632684217766E+003	9.2410613E-003	-9.9191233E-004	0
5.122632684096694E+003	9.2410613E-003	-9.3059341E-004	0
5.132632683975622E+003	9.2028948E-003	-9.5103303E-004	0
5.142632683854550E+003	9.3555627E-003	-9.5994747E-004	0
5.152632683733478E+003	9.3173962E-003	-9.7943202E-004	0
5.162632683612406E+003	9.2410613E-003	-9.4492023E-004	0
5.172632683491334E+003	9.2410613E-003	-9.5803721E-004	0
5.182632683370262E+003	9.3364790E-003	-9.3123014E-004	0
5.192632683249190E+003	9.3173962E-003	-9.5033267E-004	0
5.202632683128119E+003	9.2601450E-003	-9.5568137E-004	0
5.212632683007047E+003	9.1838110E-003	-9.4581168E-004	0
5.222632682885975E+003	9.1456445E-003	-9.4791292E-004	0
5.232632682764903E+003	9.2601450E-003	-9.2753698E-004	0
5.242632682643831E+003	9.2983125E-003	-9.6994446E-004	0
5.252632682522759E+003	9.1456445E-003	-9.6988078E-004	0
5.262632682401687E+003	9.2028948E-003	-9.4874075E-004	0
5.272632682280615E+003	9.2601450E-003	-9.2970196E-004	0
5.282632682159543E+003	9.3173962E-003	-9.2957454E-004	0
5.292632682038471E+003	9.2219785E-003	-9.3256735E-004	0
5.302632681917399E+003	9.1838110E-003	-9.2683657E-004	0
5.312632681796327E+003	9.2601450E-003	-9.3307666E-004	0
5.322632681675255E+003	9.2410613E-003	-9.2600880E-004	0
5.332632681554183E+003	9.2219785E-003	-9.0754312E-004	0
5.342632681433111E+003	9.2028948E-003	-9.1098150E-004	0
5.352632681312039E+003	9.2410613E-003	-9.1537513E-004	0
5.362632681190968E+003	9.2410613E-003	-9.0633321E-004	0
5.372632681069896E+003	9.2410613E-003	-9.1945019E-004	0
5.382632680948824E+003	9.2983125E-003	-9.3543268E-004	0
5.392632680827752E+003	9.2410613E-003	-9.1117254E-004	0
5.402632680706680E+003	9.2410613E-003	-9.2352543E-004	0
5.412632680585608E+003	9.3173962E-003	-9.0072979E-004	0
5.422632680464536E+003	9.2219785E-003	-9.0276747E-004	0
5.432632680343464E+003	9.2410613E-003	-9.3543268E-004	0
5.442632680222392E+003	9.2792287E-003	-8.8347396E-004	0
5.452632680101320E+003	9.1647273E-003	-9.0601487E-004	0
5.462632679980248E+003	9.2601450E-003	-9.0773409E-004	0
5.472632679859176E+003	9.2410613E-003	-9.1429253E-004	0
5.482632679738104E+003	9.2983125E-003	-8.8965031E-004	0
5.492632679617032E+003	9.3937302E-003	-8.9888321E-004	0
5.502632679495960E+003	9.2983125E-003	-8.9130597E-004	0
5.512632679374889E+003	9.2410613E-003	-9.0505980E-004	0
5.522632679253817E+003	9.2028948E-003	-9.2288869E-004	0
5.532632679132745E+003	9.3364790E-003	-8.7717013E-004	0
5.542632679011673E+003	9.2219785E-003	-8.8703970E-004	0
5.552632678890601E+003	9.2028948E-003	-8.8525680E-004	0
5.562632678769529E+003	9.1838110E-003	-8.5322832E-004	0
5.572632678648457E+003	9.3364790E-003	-8.6761889E-004	0
5.582632678527385E+003	9.2601450E-003	-8.8423805E-004	0
5.592632678406313E+003	9.2410613E-003	-9.1168191E-004	0
5.602632678285241E+003	9.2219785E-003	-8.5494755E-004	0
5.612632678164169E+003	9.2219785E-003	-8.6857402E-004	0
5.622632678043097E+003	9.2028948E-003	-8.6468982E-004	0
5.632632677922025E+003	9.1647273E-003	-8.7029324E-004	0
5.642632677800953E+003	9.2983125E-003	-8.6112408E-004	0
5.652632677679881E+003	9.3173962E-003	-8.5488387E-004	0
5.662632677558810E+003	9.2410613E-003	-8.5813127E-004	0
5.672632677437738E+003	9.3937302E-003	-8.5513858E-004	0
5.682632677316666E+003	9.1456445E-003	-8.6392567E-004	0
5.692632677195594E+003	9.2219785E-003	-8.4049336E-004	0
5.702632677074522E+003	9.2410613E-003	-8.7876193E-004	0
5.712632676953450E+003	9.2410613E-003	-8.6742791E-004	0
5.722632676832378E+003	9.1838110E-003	-8.4030238E-004	0
5.732632676711306E+003	9.3173962E-003	-8.5844973E-004	0
5.742632676590234E+003	9.2601450E-003	-8.3533570E-004	0
5.752632676469162E+003	9.2410613E-003	-8.5119077E-004	0
5.762632676348090E+003	9.3364790E-003	-8.3781901E-004	0
5.772632676227018E+003	9.2601450E-003	-8.2355575E-004	0
5.782632676105946E+003	9.1074770E-003	-8.6023257E-004	0
5.792632675984874E+003	9.2601450E-003	-8.3036901E-004	0
5.802632675863802E+003	9.3364790E-003	-8.3444419E-004	0
5.812632675742731E+003	9.2792287E-003	-8.3348906E-004	0
5.822632675621659E+003	9.2028948E-003	-8.0642727E-004	0
5.832632675500587E+003	9.2983125E-003	-8.4698823E-004	0
5.842632675379515E+003	9.2219785E-003	-8.4705185E-004	0
5.852632675258443E+003	9.1647273E-003	-8.4399543E-004	0
5.862632675137371E+003	9.2983125E-003	-8.2336471E-004	0
5.872632675016299E+003	9.2410613E-003	-8.2145451E-004	0
5.882632674895227E+003	9.3173962E-003	-8.1801607E-004	0
5.892632674774155E+003	9.2983125E-003	-7.9509313E-004	0
5.902632674653083E+003	9.2410613E-003	-8.4412284E-004	0
5.912632674532011E+003	9.2601450E-003	-8.0725504E-004	0
5.922632674410939E+003	9.2028948E-003	-8.2202756E-004	0
5.932632674289867E+003	9.3364790E-003	-8.2368316E-004	0
5.942632674168795E+003	9.2028948E-003	-8.0381660E-004	0
5.952632674047723E+003	9.2028948E-003	-8.1508706E-004	0
5.962632673926651E+003	9.1838110E-003	-8.1597845E-004	0
5.972632673805580E+003	9.2219785E-003	-7.8757945E-004	0
5.982632673684508E+003	9.2792287E-003	-8.3374378E-004	0
5.992632673563436E+003	9.2410613E-003	-8.1273110E-004	0
6.002632673442364E+003	9.1838110E-003	-7.9687603E-004	0
6.012632673321292E+003	9.2601450E-003	-7.8713376E-004	0
6.022632673200220E+003	9.2410613E-003	-8.1394095E-004	0
6.032632673079148E+003	9.2792287E-003	-7.8223081E-004	0
6.042632672958076E+003	9.2601450E-003	-8.0005970E-004	0
6.052632672837004E+003	9.1838110E-003	-8.1591483E-004	0
6.062632672715932E+003	9.1456445E-003	-7.9178211E-004	0
6.072632672594860E+003	9.2792287E-003	-7.9012645E-004	0
6.082632672473788E+003	9.2219785E-003	-7.9184567E-004	0
6.092632672352716E+003	9.1647273E-003	-8.0827379E-004	0
6.102632672231644E+003	9.2983125E-003	-8.0209738E-004	0
6.112632672110572E+003	9.1838110E-003	-7.9496577E-004	0
6.122632671989501E+003	9.2983125E-003	-7.9802220E-004	0
6.132632671868429E+003	9.2028948E-003	-7.7809184E-004	0
6.142632671747357E+003	9.2028948E-003	-7.8509614E-004	0
6.152632671626285E+003	9.2219785E-003	-7.7350735E-004	0
6.162632671505213E+003	9.3173962E-003	-8.1616954E-004	0
6.172632671384141E+003	9.2410613E-003	-7.7962008E-004	0
6.182632671263069E+003	9.2410613E-003	-7.7140605E-004	0
6.192632671141997E+003	9.1838110E-003	-7.9655764E-004	0
6.202632671020925E+003	9.2219785E-003	-7.6198223E-004	0
6.212632670899853E+003	9.2983125E-003	-7.7758252E-004	0
6.222632670778781E+003	9.2028948E-003	-7.8274019E-004	0
6.232632670657709E+003	9.2983125E-003	-7.8560557E-004	0
6.242632670536637E+003	9.2601450E-003	-7.5090275E-004	0
6.252632670415565E+003	9.2219785E-003	-7.8643335E-004	0
6.262632670294493E+003	9.2219785E-003	-7.7223382E-004	0
6.272632670173422E+003	9.1647273E-003	-7.5994455E-004	0
6.282632670052350E+003	9.2219785E-003	-7.6631212E-004	0
6.292632669931278E+003	9.3746465E-003	-7.8051159E-004	0
6.302632669810206E+003	9.2410613E-003	-7.4020535E-004	0
6.312632669689134E+003	9.2028948E-003	-7.8000210E-004	0
6.322632669568062E+003	9.1647273E-003	-7.5644243E-004	0
6.332632669446990E+003	9.2219785E-003	-7.2899851E-004	0
6.342632669325918E+003	9.2028948E-003	-7.2473235E-004	0
6.352632669204846E+003	9.2601450E-003	-7.4109680E-004	0
6.362632669083774E+003	9.2792287E-003	-7.5835275E-004	0
6.372632668962702E+003	9.2792287E-003	-7.5370446E-004	0
6.382632668841630E+003	9.2792287E-003	-7.6446554E-004	0
6.392632668720558E+003	9.1838110E-003	-7.3886820E-004	0
6.402632668599486E+003	9.1838110E-003	-7.5676083E-004	0
6.412632668478414E+003	9.2410613E-003	-7.7057828E-004	0
6.422632668357342E+003	9.3173962E-003	-7.4147887E-004	0
6.432632668236271E+003	9.2410613E-003	-7.4275234E-004	0
6.442632668115199E+003	9.2792287E-003	-7.3956861E-004	0
6.452632667994127E+003	9.3173962E-003	-7.4701861E-004	0
6.462632667873055E+003	9.2792287E-003	-7.4873777E-004	0
6.472632667751983E+003	9.2792287E-003	-7.6905009E-004	0
6.482632667630911E+003	9.2410613E-003	-7.4510829E-004	0
6.492632667509839E+003	9.2028948E-003	-7.6529325E-004	0
6.502632667388767E+003	9.2410613E-003	-7.6070870E-004	0
6.512632667267695E+003	9.2601450E-003	-7.0289185E-004	0
6.522632667146623E+003	9.2219785E-003	-7.2912587E-004	0
6.532632667025551E+003	9.2410613E-003	-7.0098165E-004	0
6.542632666904479E+003	9.2792287E-003	-7.4708223E-004	0
6.552632666783407E+003	9.3937302E-003	-7.0881366E-004	0
6.562632666662335E+003	9.2601450E-003	-7.3001737E-004	0
6.572632666541263E+003	9.2410613E-003	-7.4179721E-004	0
6.582632666420192E+003	9.2601450E-003	-7.4326171E-004	0
6.592632666299120E+003	9.3173962E-003	-7.4466254E-004	0
6.602632666178048E+003	9.1838110E-003	-7.2275841E-004	0
6.612632666056976E+003	9.2601450E-003	-7.3606649E-004	0
6.622632665935904E+003	9.1838110E-003	-7.2224904E-004	0
6.632632665814832E+003	9.2792287E-003	-7.2887121E-004	0
6.642632665693760E+003	9.3364790E-003	-7.1193365E-004	0
6.652632665572688E+003	9.3173962E-003	-7.2333153E-004	0
6.662632665451616E+003	9.2601450E-003	-7.1830116E-004	0
6.672632665330544E+003	9.2792287E-003	-7.1390759E-004	0
6.682632665209472E+003	9.2792287E-003	-7.1155163E-004	0
6.692632665088400E+003	9.1838110E-003	-7.2670629E-004	0
6.702632664967328E+003	9.2983125E-003	-7.0155470E-004	0
6.712632664846256E+003	9.1838110E-003	-6.9219450E-004	0
6.722632664725184E+003	9.1838110E-003	-7.0187298E-004	0
6.732632664604113E+003	9.2601450E-003	-7.0282811E-004	0
6.742632664483041E+003	9.2028948E-003	-7.2422298E-004	0
6.752632664361969E+003	9.2792287E-003	-7.0454739E-004	0
6.762632664240897E+003	9.1838110E-003	-7.0620293E-004	0
6.772632664119825E+003	9.2792287E-003	-6.8678206E-004	0
6.782632663998753E+003	9.2601450E-003	-7.1658194E-004	0
6.792632663877681E+003	9.2410613E-003	-7.2435034E-004	0
6.802632663756609E+003	9.1456445E-003	-7.3886820E-004	0
6.812632663635537E+003	9.2028948E-003	-7.0645765E-004	0
6.822632663514465E+003	9.3364790E-003	-6.9130299E-004	0
6.832632663393393E+003	9.2601450E-003	-7.2314049E-004	0
6.842632663272321E+003	9.2601450E-003	-7.0499314E-004	0
6.852632663151249E+003	9.2792287E-003	-6.9754315E-004	0
6.862632663030177E+003	9.2601450E-003	-7.0683967E-004	0
6.872632662909105E+003	9.2410613E-003	-6.9034786E-004	0
6.882632662788033E+003	9.2983125E-003	-6.9499610E-004	0
6.892632662666962E+003	9.3173962E-003	-6.7761290E-004	0
6.902632662545890E+003	9.3746465E-003	-6.9754315E-004	0
6.912632662424818E+003	9.2792287E-003	-6.9671537E-004	0
6.922632662303746E+003	9.2792287E-003	-7.1613619E-004	0
6.932632662182674E+003	9.2028948E-003	-6.7812228E-004	0
6.942632662061602E+003	9.2792287E-003	-6.8041461E-004	0
6.952632661940530E+003	9.3937302E-003	-6.7882269E-004	0
6.962632661819458E+003	9.2601450E-003	-6.8729150E-004	0
6.972632661698386E+003	9.2219785E-003	-6.8550865E-004	0
6.982632661577314E+003	9.2601450E-003	-6.9996278E-004	0
6.992632661456242E+003	9.2792287E-003	-7.0276449E-004	0
7.002632661335170E+003	9.2601450E-003	-7.0219144E-004	0
7.012632661214098E+003	9.1074770E-003	-6.7137281E-004	0
7.022632661093026E+003	9.2792287E-003	-6.8111502E-004	0
7.032632660971954E+003	9.2028948E-003	-7.0620293E-004	0
7.042632660850883E+003	9.2601450E-003	-6.7003560E-004	0
7.052632660729811E+003	9.2028948E-003	-6.7831331E-004	0
7.062632660608739E+003	9.2219785E-003	-6.4462930E-004	0
7.072632660487667E+003	9.2410613E-003	-6.6755229E-004	0
7.082632660366595E+003	9.2219785E-003	-6.6048431E-004	0
7.092632660245523E+003	9.1838110E-003	-6.6290394E-004	0
7.102632660124451E+003	9.2601450E-003	-6.6602411E-004	0
7.112632660003379E+003	9.2410613E-003	-6.4399251E-004	0
7.122632659882307E+003	9.2410613E-003	-6.9136661E-004	0
7.132632659761235E+003	9.3173962E-003	-6.5800099E-004	0
7.142632659640163E+003	9.2410613E-003	-6.9359533E-004	0
7.152632659519091E+003	9.1647273E-003	-6.6417747E-004	0
7.162632659398019E+003	9.2219785E-003	-6.8283430E-004	0
7.172632659276947E+003	9.1838110E-003	-6.7996886E-004	0
7.182632659155875E+003	9.2601450E-003	-6.4558443E-004	0
7.192632659034804E+003	9.2601450E-003	-6.5927452E-004	0
7.202632658913732E+003	9.3555627E-003	-6.5290707E-004	0
7.212632658792660E+003	9.3173962E-003	-6.6831632E-004	0
7.222632658671588E+003	9.2983125E-003	-6.4233696E-004	0
7.232632658550516E+003	9.2983125E-003	-6.5004162E-004	0
7.242632658429444E+003	9.2028948E-003	-6.6455954E-004	0
7.252632658308372E+003	9.2792287E-003	-6.5672753E-004	0
7.262632658187300E+003	9.2028948E-003	-6.6831632E-004	0
7.272632658066228E+003	9.2028948E-003	-6.6430483E-004	0
7.282632657945156E+003	9.2601450E-003	-6.5730058E-004	0
7.292632657824084E+003	9.1647273E-003	-6.3845282E-004	0
7.302632657703012E+003	9.1838110E-003	-6.4042676E-004	0
7.312632657581940E+003	9.2792287E-003	-6.4074504E-004	0
7.322632657460868E+003	9.2028948E-003	-6.5812835E-004	0
7.332632657339796E+003	9.1838110E-003	-6.3119386E-004	0
7.342632657218724E+003	9.2028948E-003	-6.4087240E-004	0
7.352632657097653E+003	9.1265608E-003	-6.4074504E-004	0
7.362632656976581E+003	9.2410613E-003	-6.5074209E-004	0
7.372632656855509E+003	9.2219785E-003	-6.2877423E-004	0
7.382632656734437E+003	9.1838110E-003	-6.4310111E-004	0
7.392632656613365E+003	9.2410613E-003	-6.4004475E-004	0
7.402632656492293E+003	9.3364790E-003	-6.6602411E-004	0
7.412632656371221E+003	9.2028948E-003	-6.2756438E-004	0
7.422632656250149E+003	9.2219785E-003	-6.6430483E-004	0
7.432632656129077E+003	9.2983125E-003	-6.3978997E-004	0
7.442632656008005E+003	9.2028948E-003	-6.4201857E-004	0
7.452632655886933E+003	9.2983125E-003	-6.2654557E-004	0
7.462632655765861E+003	9.3173962E-003	-6.4641220E-004	0
7.472632655644789E+003	9.2028948E-003	-5.8878632E-004	0
7.482632655523717E+003	9.2792287E-003	-6.2616356E-004	0
7.492632655402645E+003	9.3555627E-003	-6.2947464E-004	0
7.502632655281574E+003	9.3746465E-003	-6.4411986E-004	0
7.512632655160502E+003	9.2792287E-003	-6.4825878E-004	0
7.522632655039430E+003	9.1265608E-003	-6.4934121E-004	0
7.532632654918358E+003	9.2792287E-003	-6.4042676E-004	0
7.542632654797286E+003	9.1838110E-003	-6.3367718E-004	0
7.552632654676214E+003	9.3364790E-003	-6.3998101E-004	0
7.562632654555142E+003	9.2219785E-003	-6.3565111E-004	0
7.572632654434070E+003	9.1265608E-003	-6.1820418E-004	0
7.582632654312998E+003	9.2028948E-003	-6.0050259E-004	0
7.592632654191926E+003	9.2028948E-003	-6.3546008E-004	0
7.602632654070854E+003	9.1838110E-003	-6.1635760E-004	0
7.612632653949782E+003	9.2028948E-003	-6.5010536E-004	0
7.622632653828710E+003	9.2028948E-003	-6.4494764E-004	0
7.632632653707638E+003	9.2410613E-003	-6.1845890E-004	0
7.642632653586566E+003	9.2219785E-003	-6.4125453E-004	0
7.652632653465495E+003	9.3173962E-003	-6.1603927E-004	0
7.662632653344423E+003	9.2601450E-003	-6.2336185E-004	0
7.672632653223351E+003	9.2792287E-003	-6.0228549E-004	0
7.682632653102279E+003	9.2601450E-003	-6.3367718E-004	0
7.692632652981207E+003	9.3173962E-003	-6.4475666E-004	0
7.702632652860135E+003	9.1647273E-003	-6.3278573E-004	0
7.712632652739063E+003	9.3173962E-003	-5.9693679E-004	0
7.722632652617991E+003	9.2028948E-003	-6.2953838E-004	0
7.732632652496919E+003	9.2792287E-003	-6.2196102E-004	0
7.742632652375847E+003	9.2219785E-003	-6.2361662E-004	0
7.752632652254775E+003	9.2410613E-003	-6.1737641E-004	0
7.762632652133703E+003	9.2601450E-003	-6.0763414E-004	0
7.772632652012631E+003	9.2601450E-003	-6.0215808E-004	0
7.782632651891559E+003	9.1838110E-003	-6.2240672E-004	0
7.792632651770487E+003	9.2601450E-003	-5.9865596E-004	0
7.802632651649415E+003	9.2792287E-003	-6.0203078E-004	0
7.812632651528344E+003	9.1838110E-003	-6.1661232E-004	0
7.822632651407272E+003	9.2792287E-003	-5.9598166E-004	0
7.832632651286200E+003	9.2601450E-003	-6.2469905E-004	0
7.842632651165128E+003	9.1456445E-003	-5.9757353E-004	0
7.852632651044056E+003	9.2601450E-003	-5.9069658E-004	0
7.862632650922984E+003	9.2410613E-003	-6.1400165E-004	0
7.872632650801912E+003	9.2983125E-003	-6.0228549E-004	0
7.882632650680840E+003	9.1647273E-003	-5.9878337E-004	0
7.892632650559768E+003	9.2410613E-003	-5.9076032E-004	0
7.902632650438696E+003	9.2410613E-003	-5.8713084E-004	0
7.912632650317624E+003	9.2219785E-003	-6.0177606E-004	0
7.922632650196552E+003	9.2219785E-003	-5.9005985E-004	0
7.932632650075480E+003	9.1647273E-003	-5.9833762E-004	0
7.942632649954408E+003	9.2410613E-003	-5.6720054E-004	0
7.952632649833336E+003	9.2219785E-003	-6.0916238E-004	0
7.962632649712265E+003	9.2792287E-003	-5.7872571E-004	0
7.972632649591193E+003	9.2983125E-003	-5.9069658E-004	0
7.982632649470121E+003	9.2601450E-003	-5.7242194E-004	0
7.992632649349049E+003	9.1838110E-003	-6.0355902E-004	0
8.002632649227977E+003	9.3173962E-003	-5.8757653E-004	0
8.012632649106905E+003	9.2219785E-003	-5.7636976E-004	0
8.022632648985833E+003	9.2219785E-003	-5.7923514E-004	0
8.032632648864761E+003	9.1838110E-003	-5.9241586E-004	0
8.042632648743689E+003	9.2983125E-003	-5.7547831E-004	0
8.052632648622617E+003	9.2410613E-003	-5.7802536E-004	0
8.062632648501545E+003	9.2601450E-003	-5.8732188E-004	0
8.072632648380473E+003	9.1647273E-003	-5.8331032E-004	0
8.082632648259401E+003	9.3555627E-003	-5.5083615E-004	0
8.092632648138329E+003	9.3555627E-003	-6.0349528E-004	0
8.102632648017257E+003	9.2028948E-003	-5.8057229E-004	0
8.112632647896186E+003	9.1838110E-003	-5.8795861E-004	0
8.122632647775114E+003	9.2601450E-003	-5.8159116E-004	0
8.132632647654042E+003	9.2792287E-003	-5.7401380E-004	0
8.142632647532970E+003	9.3173962E-003	-5.9235218E-004	0
8.152632647411898E+003	9.2219785E-003	-5.3549046E-004	0
8.162632647290826E+003	9.2028948E-003	-5.4090284E-004	0
8.172632647169754E+003	9.2983125E-003	-5.6828308E-004	0
8.182632647048682E+003	9.2983125E-003	-5.6191557E-004	0
8.192632646927595E+003	9.2601450E-003	-5.8515690E-004	0
8.202632646806524E+003	9.2792287E-003	-5.4103014E-004	0
8.212632646685452E+003	9.3746465E-003	-5.6236133E-004	0
8.222632646564380E+003	9.2792287E-003	-5.7509629E-004	0
8.232632646443308E+003	9.2601450E-003	-5.5612111E-004	0
8.242632646322236E+003	9.2410613E-003	-5.7108479E-004	0
8.252632646201164E+003	9.3364790E-003	-5.6229759E-004	0
8.262632646080092E+003	9.2601450E-003	-5.5815873E-004	0
8.272632645959020E+003	9.1838110E-003	-5.5911386E-004	0
8.282632645837948E+003	9.2792287E-003	-5.5796769E-004	0
8.292632645716876E+003	9.2792287E-003	-5.6070572E-004	0
8.302632645595804E+003	9.1456445E-003	-5.8381975E-004	0
8.312632645474732E+003	9.1074770E-003	-5.8369240E-004	0
8.322632645353660E+003	9.2792287E-003	-5.7923514E-004	0
8.332632645232588E+003	9.2601450E-003	-5.6758261E-004	0
8.342632645111516E+003	9.2601450E-003	-5.5370148E-004	0
8.352632644990445E+003	9.1074770E-003	-5.6408049E-004	0
8.362632644869373E+003	9.2983125E-003	-5.4344983E-004	0
8.372632644748301E+003	9.2983125E-003	-5.5841345E-004	0
8.382632644627229E+003	9.2792287E-003	-5.7350437E-004	0
8.392632644506157E+003	9.3364790E-003	-5.7337707E-004	0
8.402632644385085E+003	9.1456445E-003	-5.6968391E-004	0
8.412632644264013E+003	9.1838110E-003	-5.6949287E-004	0
8.422632644142941E+003	9.3555627E-003	-5.5249169E-004	0
8.432632644021869E+003	9.2601450E-003	-5.5351050E-004	0
8.442632643900797E+003	9.2983125E-003	-5.4357719E-004	0
8.452632643779725E+003	9.2983125E-003	-5.9012353E-004	0
8.462632643658653E+003	9.2410613E-003	-5.4599682E-004	0
8.472632643537581E+003	9.2219785E-003	-5.5701256E-004	0
8.482632643416509E+003	9.2219785E-003	-5.5395620E-004	0
8.492632643295437E+003	9.3555627E-003	-5.5796769E-004	0
8.502632643174366E+003	9.2410613E-003	-5.7643343E-004	0
8.512632643053294E+003	9.1838110E-003	-5.6554505E-004	0
8.522632642932222E+003	9.2410613E-003	-5.5764936E-004	0
8.532632642811150E+003	9.1838110E-003	-5.4555113E-004	0
8.542632642690078E+003	9.2219785E-003	-5.5070879E-004	0
8.552632642569006E+003	9.3364790E-003	-5.6891982E-004	0
8.562632642447934E+003	9.2028948E-003	-5.3287979E-004	0
8.572632642326862E+003	9.2028948E-003	-5.3854682E-004	0
8.582632642205790E+003	9.2410613E-003	-5.4777972E-004	0
8.592632642084718E+003	9.2028948E-003	-5.6783733E-004	0
8.602632641963646E+003	9.3555627E-003	-5.1524182E-004	0
8.612632641842574E+003	9.2792287E-003	-5.5535702E-004	0
8.622632641721502E+003	9.3746465E-003	-5.5911386E-004	0
8.632632641600430E+003	9.3173962E-003	-5.4325879E-004	0
8.642632641479358E+003	9.2983125E-003	-5.4319517E-004	0
8.652632641358286E+003	9.3173962E-003	-5.6465360E-004	0
8.662632641237215E+003	9.2219785E-003	-5.2269181E-004	0
8.672632641116143E+003	9.2792287E-003	-5.5414723E-004	0
8.682632640995071E+003	9.2219785E-003	-5.3249777E-004	0
8.692632640873999E+003	9.2410613E-003	-5.5274635E-004	0
8.702632640752927E+003	9.2792287E-003	-5.3708232E-004	0
8.712632640631855E+003	9.2410613E-003	-5.5694894E-004	0
8.722632640510783E+003	9.2028948E-003	-5.2925030E-004	0
8.732632640389711E+003	9.2410613E-003	-5.6669122E-004	0
8.742632640268639E+003	9.2792287E-003	-5.2823150E-004	0
8.752632640147567E+003	9.2792287E-003	-5.5389252E-004	0
8.762632640026495E+003	9.3555627E-003	-5.4841646E-004	0
8.772632639905423E+003	9.2410613E-003	-5.2893197E-004	0
8.782632639784351E+003	9.2601450E-003	-5.2625762E-004	0
8.792632639663279E+003	9.3364790E-003	-5.3453533E-004	0
8.802632639542207E+003	9.1074770E-003	-5.7063898E-004	0
8.812632639421136E+003	9.1456445E-003	-5.2931398E-004	0
8.822632639300064E+003	9.2219785E-003	-5.2893197E-004	0
8.832632639178992E+003	9.3173962E-003	-5.5637583E-004	0
8.842632639057920E+003	9.2219785E-003	-5.4472336E-004	0
8.852632638936848E+003	9.2601450E-003	-5.5713992E-004	0
8.862632638815776E+003	9.2792287E-003	-5.2492041E-004	0
8.872632638694704E+003	9.2219785E-003	-5.1549653E-004	0
8.882632638573632E+003	9.2601450E-003	-5.3479004E-004	0
8.892632638452560E+003	9.2410613E-003	-5.4771604E-004	0
8.902632638331488E+003	9.2028948E-003	-5.2574818E-004	0
8.912632638210416E+003	9.2219785E-003	-5.2447472E-004	0
8.922632638089344E+003	9.2219785E-003	-5.1829824E-004	0
8.932632637968272E+003	9.2792287E-003	-5.2746740E-004	0
8.942632637847200E+003	9.1074770E-003	-5.3065119E-004	0
8.952632637726128E+003	9.2792287E-003	-5.1575125E-004	0
8.962632637605057E+003	9.3364790E-003	-5.2918663E-004	0
8.972632637483985E+003	9.3173962E-003	-5.3084217E-004	0
8.982632637362913E+003	9.2410613E-003	-5.2466575E-004	0
8.992632637241841E+003	9.2410613E-003	-5.1804353E-004	0
9.002632637120769E+003	9.2028948E-003	-5.3472631E-004	0
9.012632636999697E+003	9.3173962E-003	-5.2912295E-004	0
9.022632636878625E+003	9.2410613E-003	-5.2613020E-004	0
9.032632636757553E+003	9.1074770E-003	-5.3020549E-004	0
9.042632636636481E+003	9.1074770E-003	-5.4020237E-004	0
9.052632636515409E+003	9.1838110E-003	-5.3173368E-004	0
9.062632636394337E+003	9.2410613E-003	-5.3924730E-004	0
9.072632636273265E+003	9.2028948E-003	-5.3396221E-004	0
9.082632636152193E+003	9.2601450E-003	-5.2893197E-004	0
9.092632636031121E+003	9.2219785E-003	-5.1925331E-004	0
9.102632635910049E+003	9.2601450E-003	-5.3975667E-004	0
9.112632635788978E+003	9.3364790E-003	-5.2205502E-004	0
9.122632635667906E+003	9.2983125E-003	-5.1906233E-004	0
9.132632635546834E+003	9.3364790E-003	-5.1275850E-004	0
9.142632635425762E+003	9.2028948E-003	-5.1415933E-004	0
9.152632635304690E+003	9.1647273E-003	-5.1428669E-004	0
9.162632635183618E+003	9.2028948E-003	-5.1568757E-004	0
9.172632635062546E+003	9.2601450E-003	-5.0390774E-004	0
9.182632634941474E+003	9.2601450E-003	-5.1543285E-004	0
9.192632634820402E+003	9.2028948E-003	-5.1218545E-004	0
9.202632634699330E+003	9.3364790E-003	-5.2816788E-004	0
9.212632634578258E+003	9.3364790E-003	-4.8505989E-004	0
9.222632634457186E+003	9.2410613E-003	-5.3205201E-004	0
9.232632634336114E+003	9.2410613E-003	-5.3950195E-004	0
9.242632634215042E+003	9.2792287E-003	-4.9747649E-004	0
9.252632634093970E+003	9.2983125E-003	-5.1938067E-004	0
9.262632633972898E+003	9.2028948E-003	-5.3077855E-004	0
9.272632633851827E+003	9.3555627E-003	-5.1899866E-004	0
9.282632633730755E+003	9.2219785E-003	-5.2033586E-004	0
9.292632633609683E+003	9.3173962E-003	-5.2969606E-004	0
9.302632633488611E+003	9.2410613E-003	-5.1950803E-004	0
9.312632633367539E+003	9.2601450E-003	-4.9957779E-004	0
9.322632633246467E+003	9.3364790E-003	-5.0174270E-004	0
9.332632633125395E+003	9.2028948E-003	-5.2281917E-004	0
9.342632633004323E+003	9.2028948E-003	-4.9766753E-004	0
9.352632632883251E+003	9.2983125E-003	-5.0811021E-004	0
9.362632632762179E+003	9.3364790E-003	-5.1403203E-004	0
9.372632632641107E+003	9.2028948E-003	-5.3975667E-004	0
9.382632632520035E+003	9.2028948E-003	-5.1581487E-004	0
9.392632632398963E+003	9.2219785E-003	-4.8652443E-004	0
9.402632632277891E+003	9.1838110E-003	-4.7875606E-004	0
9.412632632156819E+003	9.2028948E-003	-5.2046322E-004	0
9.422632632035748E+003	9.2792287E-003	-5.2320119E-004	0
9.432632631914676E+003	9.2028948E-003	-5.0097861E-004	0
9.442632631793604E+003	9.3364790E-003	-5.0760078E-004	0
9.452632631672532E+003	9.2410613E-003	-5.1244011E-004	0
9.462632631551460E+003	9.2219785E-003	-4.9588463E-004	0
9.472632631430388E+003	9.2601450E-003	-4.8989919E-004	0
9.482632631309316E+003	9.2601450E-003	-5.2568450E-004	0
9.492632631188244E+003	9.1838110E-003	-5.2695803E-004	0
9.502632631067172E+003	9.2601450E-003	-5.0811021E-004	0
9.512632630946100E+003	9.3364790E-003	-5.1212177E-004	0
9.522632630825028E+003	9.3364790E-003	-5.1377725E-004	0
9.532632630703956E+003	9.1647273E-003	-4.9059960E-004	0
9.542632630582884E+003	9.3555627E-003	-4.9989618E-004	0
9.552632630461812E+003	9.2028948E-003	-4.9486582E-004	0
9.562632630340740E+003	9.2410613E-003	-5.0428975E-004	0
9.572632630219669E+003	9.3364790E-003	-5.1454135E-004	0
9.582632630098597E+003	9.2601450E-003	-5.1899866E-004	0
9.592632629977525E+003	9.2410613E-003	-4.9811322E-004	0
9.602632629856453E+003	9.2792287E-003	-5.1511452E-004	0
9.612632629735381E+003	9.2601450E-003	-4.9900467E-004	0
9.622632629614309E+003	9.2792287E-003	-4.9327395E-004	0
9.632632629493237E+003	9.2028948E-003	-5.1173975E-004	0
9.642632629372165E+003	9.1838110E-003	-4.9410173E-004	0
9.652632629251093E+003	9.2410613E-003	-5.0416240E-004	0
9.662632629130021E+003	9.1456445E-003	-4.9683981E-004	0
9.672632629008949E+003	9.2983125E-003	-5.0919270E-004	0
9.682632628887877E+003	9.2601450E-003	-5.0403498E-004	0
9.692632628766805E+003	9.2028948E-003	-5.0104229E-004	0
9.702632628645733E+003	9.2410613E-003	-4.9741287E-004	0
9.712632628524661E+003	9.2219785E-003	-4.8283127E-004	0
9.722632628403589E+003	9.2028948E-003	-4.5608776E-004	0
9.732632628282518E+003	9.2601450E-003	-4.9620296E-004	0
9.742632628161446E+003	9.1074770E-003	-4.9976876E-004	0
9.752632628040374E+003	9.1265608E-003	-5.1976275E-004	0
9.762632627919302E+003	9.2410613E-003	-5.1530555E-004	0
9.772632627798230E+003	9.2219785E-003	-4.9683981E-004	0
9.782632627677158E+003	9.2410613E-003	-4.9620296E-004	0
9.792632627556086E+003	9.2983125E-003	-4.7703681E-004	0
9.802632627435014E+003	9.3555627E-003	-4.9327395E-004	0
9.812632627313942E+003	9.2028948E-003	-4.8824362E-004	0
9.822632627192870E+003	9.2601450E-003	-5.0352566E-004	0
9.832632627071798E+003	9.2410613E-003	-4.9537525E-004	0
9.842632626950726E+003	9.1838110E-003	-5.0677307E-004	0
9.852632626829654E+003	9.2601450E-003	-4.8550559E-004	0
9.862632626708582E+003	9.2219785E-003	-5.0320727E-004	0
9.872632626587510E+003	9.2410613E-003	-4.8779786E-004	0
9.882632626466439E+003	9.1838110E-003	-4.8206712E-004	0
9.892632626345367E+003	9.1456445E-003	-4.8735217E-004	0
9.902632626224295E+003	9.2601450E-003	-4.9792224E-004	0
9.912632626103223E+003	9.2219785E-003	-4.9811322E-004	0
9.922632625982151E+003	9.2601450E-003	-4.9709447E-004	0
9.932632625861079E+003	9.1838110E-003	-4.8423212E-004	0
9.942632625740007E+003	9.3555627E-003	-4.7238858E-004	0
9.952632625618935E+003	9.3364790E-003	-4.7665479E-004	0
9.962632625497863E+003	9.2792287E-003	-4.9378339E-004	0
9.972632625376791E+003	9.2219785E-003	-4.8837095E-004	0
9.982632625255719E+003	9.2028948E-003	-4.8881670E-004	0
9.992632625134647E+003	9.1838110E-003	-4.7678215E-004	0
1.000263262501358E+004	9.2410613E-003	-4.8155777E-004	0
1.001263262489250E+004	9.2219785E-003	-4.8072997E-004	0
1.002263262477143E+004	9.2219785E-003	-4.7601806E-004	0
1.003263262465036E+004	9.2983125E-003	-4.7353475E-004	0
1.004263262452929E+004	9.2410613E-003	-4.7143348E-004	0
1.005263262440822E+004	9.1838110E-003	-4.8072997E-004	0
1.006263262428714E+004	9.2219785E-003	-4.8410473E-004	0
1.007263262416607E+004	9.2410613E-003	-4.6309203E-004	0
1.008263262404500E+004	9.2792287E-003	-4.6627581E-004	0
1.009263262392393E+004	9.1838110E-003	-4.7398044E-004	0
1.010263262380286E+004	9.2601450E-003	-4.7894707E-004	0
1.011263262368178E+004	9.2983125E-003	-4.8595134E-004	0
1.012263262356071E+004	9.2410613E-003	-4.8767059E-004	0
1.013263262343964E+004	9.2792287E-003	-4.6735824E-004	0
1.014263262331857E+004	9.3173962E-003	-4.6684890E-004	0
1.015263262319750E+004	9.2410613E-003	-4.6837708E-004	0
1.016263262307642E+004	9.2410613E-003	-4.8136676E-004	0
1.017263262295535E+004	9.3364790E-003	-4.6544799E-004	0
1.018263262283428E+004	9.3364790E-003	-4.7601806E-004	0
1.019263262271321E+004	9.2410613E-003	-4.6181850E-004	0
1.020263262259214E+004	9.2983125E-003	-4.6245530E-004	0
1.021263262247106E+004	9.2028948E-003	-4.6869542E-004	0
1.022263262234999E+004	9.1647273E-003	-4.4437160E-004	0
1.023263262222892E+004	9.0883933E-003	-4.6372876E-004	0
1.024263262210785E+004	9.2410613E-003	-4.4857417E-004	0
1.025263262198678E+004	9.2028948E-003	-4.7824666E-004	0
1.026263262186571E+004	9.2601450E-003	-4.5685188E-004	0
1.027263262174463E+004	9.1456445E-003	-4.7092405E-004	0
1.028263262162356E+004	9.1647273E-003	-4.4271603E-004	0
1.029263262150249E+004	9.2219785E-003	-4.7856505E-004	0
1.030263262138142E+004	9.1838110E-003	-4.7175182E-004	0
1.031263262126035E+004	9.3173962E-003	-4.5672455E-004	0
1.032263262113927E+004	9.2792287E-003	-4.6385612E-004	0
1.033263262101820E+004	9.1838110E-003	-4.4761901E-004	0
1.034263262089713E+004	9.2219785E-003	-4.6277363E-004	0
1.035263262077606E+004	9.1838110E-003	-4.7015995E-004	0
1.036263262065499E+004	9.1838110E-003	-4.5455957E-004	0
1.037263262053391E+004	9.2410613E-003	-4.5691556E-004	0
1.038263262041284E+004	9.2601450E-003	-4.5666084E-004	0
1.039263262029177E+004	9.1838110E-003	-4.6856809E-004	0
1.040263262017070E+004	9.2028948E-003	-4.4761901E-004	0
1.041263262004963E+004	9.1838110E-003	-4.4042373E-004	0
1.042263261992855E+004	9.2410613E-003	-4.5487794E-004	0
1.043263261980748E+004	9.3364790E-003	-4.7308899E-004	0
1.044263261968641E+004	9.3555627E-003	-4.3844982E-004	0
1.045263261956534E+004	9.2028948E-003	-4.7270692E-004	0
1.046263261944427E+004	9.2983125E-003	-4.7760989E-004	0
1.047263261932319E+004	9.1838110E-003	-4.4494466E-004	0
1.048263261920212E+004	9.3364790E-003	-4.3864085E-004	0
1.049263261908105E+004	9.2792287E-003	-4.5704289E-004	0
1.050263261895998E+004	9.2410613E-003	-4.4080580E-004	0
1.051263261883891E+004	9.2792287E-003	-4.4526305E-004	0
1.052263261871783E+004	9.2219785E-003	-4.5545102E-004	0
1.053263261859676E+004	9.2601450E-003	-4.5080279E-004	0
1.054263261847569E+004	9.2601450E-003	-4.6334672E-004	0
1.055263261835462E+004	9.1838110E-003	-4.4602714E-004	0
1.056263261823355E+004	9.2410613E-003	-4.7417148E-004	0
1.057263261811248E+004	9.2219785E-003	-4.4437160E-004	0
1.058263261799140E+004	9.2410613E-003	-4.6850441E-004	0
1.059263261787033E+004	9.2219785E-003	-4.2170333E-004	0
1.060263261774926E+004	9.2410613E-003	-4.5545102E-004	0
1.061263261762819E+004	9.2792287E-003	-4.3297379E-004	0
1.062263261750712E+004	9.2601450E-003	-4.3539342E-004	0
1.063263261738604E+004	9.3364790E-003	-4.5080279E-004	0
1.064263261726497E+004	9.3364790E-003	-4.2845285E-004	0
1.065263261714390E+004	9.3173962E-003	-4.5933516E-004	0
1.066263261702283E+004	9.3364790E-003	-4.4870152E-004	0
1.067263261690176E+004	9.3173962E-003	-4.5876214E-004	0
1.068263261678068E+004	9.2028948E-003	-4.4023272E-004	0
1.069263261665961E+004	9.1647273E-003	-4.2787983E-004	0
1.070263261653854E+004	9.1838110E-003	-4.4207933E-004	0
1.071263261641747E+004	9.1647273E-003	-4.2940801E-004	0
1.072263261629640E+004	9.2601450E-003	-4.4335279E-004	0
1.073263261617532E+004	9.1838110E-003	-4.5099380E-004	0
1.074263261605425E+004	9.2792287E-003	-4.3482037E-004	0
1.075263261593318E+004	9.2219785E-003	-4.4730064E-004	0
1.076263261581211E+004	9.2792287E-003	-4.6016299E-004	0
1.077263261569104E+004	9.2410613E-003	-4.2603322E-004	0
1.078263261556996E+004	9.2028948E-003	-4.4812844E-004	0
1.078791161550608E+004	9.2792287E-003	-3.9330430E-004	0
1.078791181550606E+004	9.3364790E-003	-3.9629699E-004	0