time/s	Ewe/V	I/mA	error	
6.005299848293362E+001	2.9449997E+000	-2.5031064E-002	0
6.017319847989711E+001	9.2940545E-003	-1.7140129E+001	0
6.017359847988700E+001	9.3704080E-003	-1.7052944E+001	0
6.017399847987690E+001	9.3322312E-003	-1.6991215E+001	0
6.017439847986680E+001	9.3894964E-003	-1.6910395E+001	0
6.017479847985669E+001	9.4276723E-003	-1.6837847E+001	0
6.017519847984659E+001	9.2558777E-003	-1.6755117E+001	0
6.017559847983648E+001	9.2558777E-003	-1.6675570E+001	0
6.017599847982638E+001	9.2940545E-003	-1.6605568E+001	0
6.017639847981627E+001	9.3704080E-003	-1.6540020E+001	0
6.017679847980617E+001	9.3704080E-003	-1.6457928E+001	0
6.017719847979606E+001	9.3704080E-003	-1.6382833E+001	0
6.017759847978596E+001	9.4276723E-003	-1.6317923E+001	0
6.017799847977585E+001	9.3322312E-003	-1.6250467E+001	0
6.017839847976575E+001	9.3131429E-003	-1.6176647E+001	0
6.017879847975564E+001	9.3322312E-003	-1.6104734E+001	0
6.017919847974554E+001	9.3322312E-003	-1.6036005E+001	0
6.017959847973543E+001	9.3894964E-003	-1.5967276E+001	0
6.017999847972533E+001	9.2940545E-003	-1.5899184E+001	0
6.018039847971522E+001	9.3704080E-003	-1.5834273E+001	0
6.018079847970512E+001	9.3513196E-003	-1.5754090E+001	0
6.018119847969501E+001	9.3513196E-003	-1.5691089E+001	0
6.018159847968491E+001	9.3704080E-003	-1.5623630E+001	0
6.018199847967480E+001	9.3894964E-003	-1.5566994E+001	0
6.018239847966470E+001	9.2940545E-003	-1.5489355E+001	0
6.018279847965459E+001	9.3894964E-003	-1.5428263E+001	0
6.018319847964449E+001	9.4085848E-003	-1.5369715E+001	0
6.018359847963438E+001	9.3704080E-003	-1.5299076E+001	0
6.018399847962428E+001	9.2749661E-003	-1.5226528E+001	0
6.018439847961417E+001	9.3131429E-003	-1.5174982E+001	0
6.018479847960407E+001	9.2367893E-003	-1.5104980E+001	0
6.018519847959396E+001	9.3704080E-003	-1.5050888E+001	0
6.018559847958386E+001	9.3513196E-003	-1.4985341E+001	0
6.018599847957375E+001	9.2940545E-003	-1.4920429E+001	0
6.018639847956365E+001	9.3131429E-003	-1.4863791E+001	0
6.018679847955354E+001	9.2749661E-003	-1.4803971E+001	0
6.018719847954344E+001	9.3322312E-003	-1.4739697E+001	0
6.018759847953334E+001	9.3513196E-003	-1.4676696E+001	0
6.018799847952323E+001	9.2177009E-003	-1.4620058E+001	0
6.018839847951313E+001	9.2940545E-003	-1.4557693E+001	0
6.018879847950302E+001	9.2940545E-003	-1.4505509E+001	0
6.018919847949292E+001	9.2749661E-003	-1.4445689E+001	0
6.018959847948281E+001	9.4276723E-003	-1.4380777E+001	0
6.018999847947271E+001	9.3513196E-003	-1.4326686E+001	0
6.019039847946260E+001	9.3131429E-003	-1.4270047E+001	0
6.019079847945250E+001	9.3513196E-003	-1.4212773E+001	0
6.019119847944239E+001	9.3513196E-003	-1.4154863E+001	0
6.019159847943229E+001	9.3322312E-003	-1.4102043E+001	0
6.019199847942218E+001	9.3322312E-003	-1.4040314E+001	0
6.019239847941208E+001	9.2749661E-003	-1.3989403E+001	0
6.019279847940197E+001	9.3704080E-003	-1.3937221E+001	0
6.019319847939187E+001	9.4276723E-003	-1.3878673E+001	0
6.019359847938176E+001	9.3322312E-003	-1.3825216E+001	0
6.019399847937166E+001	9.3704080E-003	-1.3770488E+001	0
6.019439847936155E+001	9.4467606E-003	-1.3713214E+001	0
6.019499847934640E+001	9.4085848E-003	-1.3631121E+001	0
6.019559847933124E+001	9.2558777E-003	-1.3557936E+001	0
6.019599847932113E+001	9.3131429E-003	-1.3502570E+001	0
6.019639847931103E+001	9.4085848E-003	-1.3447206E+001	0
6.019699847929587E+001	9.2940545E-003	-1.3375295E+001	0
6.019759847928071E+001	9.2749661E-003	-1.3295112E+001	0
6.019819847926556E+001	9.4849374E-003	-1.3221927E+001	0
6.019879847925040E+001	9.4849374E-003	-1.3146834E+001	0
6.019919847924029E+001	9.2749661E-003	-1.3090196E+001	0
6.019979847922514E+001	9.3131429E-003	-1.3017649E+001	0
6.020039847920998E+001	9.4467606E-003	-1.2951464E+001	0
6.020099847919482E+001	9.2367893E-003	-1.2881464E+001	0
6.020139847918472E+001	9.3894964E-003	-1.2830552E+001	0
6.020179847917461E+001	9.3131429E-003	-1.2771368E+001	0
6.020239847915946E+001	9.4658490E-003	-1.2712184E+001	0
6.020279847914935E+001	9.3513196E-003	-1.2657457E+001	0
6.020339847913419E+001	9.3894964E-003	-1.2586182E+001	0
6.020399847911904E+001	9.3322312E-003	-1.2519999E+001	0
6.020459847910388E+001	9.3322312E-003	-1.2448088E+001	0
6.020519847908872E+001	9.2940545E-003	-1.2386994E+001	0
6.020579847907356E+001	9.4276723E-003	-1.2316357E+001	0
6.020639847905841E+001	9.4085848E-003	-1.2238717E+001	0
6.020699847904325E+001	9.4085848E-003	-1.2182079E+001	0
6.020759847902809E+001	9.3322312E-003	-1.2111442E+001	0
6.020819847901294E+001	9.4467606E-003	-1.2042712E+001	0
6.020879847899778E+001	9.4276723E-003	-1.1979711E+001	0
6.020939847898262E+001	9.4467606E-003	-1.1912253E+001	0
6.020999847896746E+001	9.3322312E-003	-1.1850525E+001	0
6.021059847895231E+001	9.3131429E-003	-1.1784341E+001	0
6.021119847893715E+001	9.3704080E-003	-1.1727703E+001	0
6.021179847892199E+001	9.3513196E-003	-1.1673611E+001	0
6.021219847891189E+001	9.2940545E-003	-1.1621428E+001	0
6.021279847889673E+001	9.4085848E-003	-1.1560335E+001	0
6.021339847888157E+001	9.4276723E-003	-1.1501152E+001	0
6.021399847886642E+001	9.3322312E-003	-1.1443241E+001	0
6.021459847885126E+001	9.4276723E-003	-1.1373240E+001	0
6.021539847883105E+001	9.3513196E-003	-1.1299418E+001	0
6.021599847881589E+001	9.4849374E-003	-1.1247235E+001	0
6.021659847880073E+001	9.3704080E-003	-1.1182324E+001	0
6.021719847878558E+001	9.3322312E-003	-1.1125686E+001	0
6.021779847877042E+001	9.3322312E-003	-1.1071594E+001	0
6.021839847875526E+001	9.3513196E-003	-1.1007319E+001	0
6.021899847874010E+001	9.3322312E-003	-1.0956409E+001	0
6.021959847872495E+001	9.4276723E-003	-1.0892770E+001	0
6.022019847870979E+001	9.4276723E-003	-1.0839951E+001	0
6.022079847869463E+001	9.3704080E-003	-1.0789041E+001	0
6.022139847867948E+001	9.4085848E-003	-1.0732402E+001	0
6.022219847865927E+001	9.3513196E-003	-1.0670037E+001	0
6.022279847864411E+001	9.3131429E-003	-1.0607036E+001	0
6.022359847862390E+001	9.2367893E-003	-1.0544670E+001	0
6.022419847860874E+001	9.2749661E-003	-1.0483578E+001	0
6.022499847858853E+001	9.3513196E-003	-1.0417394E+001	0
6.022559847857337E+001	9.4658490E-003	-1.0363302E+001	0
6.022639847855316E+001	9.3894964E-003	-1.0299026E+001	0
6.022699847853801E+001	9.3322312E-003	-1.0246207E+001	0
6.022779847851780E+001	9.3894964E-003	-1.0183841E+001	0
6.022839847850264E+001	9.3704080E-003	-1.0130384E+001	0
6.022919847848243E+001	9.4849374E-003	-1.0078202E+001	0
6.022979847846727E+001	9.3131429E-003	-1.0020291E+001	0
6.023059847844706E+001	9.3894964E-003	-9.9534712E+000	0
6.023139847842685E+001	9.4467606E-003	-9.8968334E+000	0
6.023219847840664E+001	9.4085848E-003	-9.8268309E+000	0
6.023299847838643E+001	9.3704080E-003	-9.7689209E+000	0
6.023379847836623E+001	9.4085848E-003	-9.7110100E+000	0
6.023459847834602E+001	9.4849374E-003	-9.6473713E+000	0
6.023539847832581E+001	9.3322312E-003	-9.5881872E+000	0
6.023619847830560E+001	9.3322312E-003	-9.5328226E+000	0
6.023679847829044E+001	9.3131429E-003	-9.4825487E+000	0
6.023759847827023E+001	9.4658490E-003	-9.4290924E+000	0
6.023819847825507E+001	9.3322312E-003	-9.3781815E+000	0
6.023899847823486E+001	9.3513196E-003	-9.3202715E+000	0
6.023979847821465E+001	9.5231142E-003	-9.2699976E+000	0
6.024079847818939E+001	9.2940545E-003	-9.2012682E+000	0
6.024179847816413E+001	9.3322312E-003	-9.1350842E+000	0
6.024259847814392E+001	9.3322312E-003	-9.0809917E+000	0
6.024339847812371E+001	9.3322312E-003	-9.0300817E+000	0
6.024419847810350E+001	9.3704080E-003	-8.9708977E+000	0
6.024519847807824E+001	9.3894964E-003	-8.9072590E+000	0
6.024599847805803E+001	9.3894964E-003	-8.8563499E+000	0
6.024699847803277E+001	9.2558777E-003	-8.8009844E+000	0
6.024779847801256E+001	9.4085848E-003	-8.7494373E+000	0
6.024859847799235E+001	9.2940545E-003	-8.6947079E+000	0
6.024959847796708E+001	9.4276723E-003	-8.6348886E+000	0
6.025059847794182E+001	9.3513196E-003	-8.5757046E+000	0
6.025159847791656E+001	9.3704080E-003	-8.5133390E+000	0
6.025259847789130E+001	9.2940545E-003	-8.4617920E+000	0
6.025339847787109E+001	9.3513196E-003	-8.4115191E+000	0
6.025439847784583E+001	9.3704080E-003	-8.3453341E+000	0
6.025559847781551E+001	9.2367893E-003	-8.2880602E+000	0
6.025659847779025E+001	9.3894964E-003	-8.2326946E+000	0
6.025759847776499E+001	9.3894964E-003	-8.1760569E+000	0
6.025839847774478E+001	9.3131429E-003	-8.1257820E+000	0
6.025959847771446E+001	9.4467606E-003	-8.0685081E+000	0
6.026059847768920E+001	9.4467606E-003	-8.0156889E+000	0
6.026159847766394E+001	9.3322312E-003	-7.9622331E+000	0
6.026259847763868E+001	9.3704080E-003	-7.9100494E+000	0
6.026379847760836E+001	9.4085848E-003	-7.8451381E+000	0
6.026499847757805E+001	9.3894964E-003	-7.7904096E+000	0
6.026619847754773E+001	9.3513196E-003	-7.7375903E+000	0
6.026719847752247E+001	9.2940545E-003	-7.6771336E+000	0
6.026839847749216E+001	9.3894964E-003	-7.6236782E+000	0
6.026959847746184E+001	9.2177009E-003	-7.5651312E+000	0
6.027079847743153E+001	9.3513196E-003	-7.5148568E+000	0
6.027199847740121E+001	9.2749661E-003	-7.4544005E+000	0
6.027319847737090E+001	9.4276723E-003	-7.4041262E+000	0
6.027439847734058E+001	9.4276723E-003	-7.3474884E+000	0
6.027559847731027E+001	9.3704080E-003	-7.2940326E+000	0
6.027699847727490E+001	9.3704080E-003	-7.2367578E+000	0
6.027819847724459E+001	9.3894964E-003	-7.1833024E+000	0
6.027959847720922E+001	9.3513196E-003	-7.1311188E+000	0
6.028079847717891E+001	9.3894964E-003	-7.0725718E+000	0
6.028239847713849E+001	9.4276723E-003	-7.0133882E+000	0
6.028379847710312E+001	9.4467606E-003	-6.9472041E+000	0
6.028539847706270E+001	9.3513196E-003	-6.8956575E+000	0
6.028659847703238E+001	9.3322312E-003	-6.8441105E+000	0
6.028799847699702E+001	9.3513196E-003	-6.7881093E+000	0
6.028959847695660E+001	9.2367893E-003	-6.7352896E+000	0
6.029099847692123E+001	9.4085848E-003	-6.6850152E+000	0
6.029259847688081E+001	9.3894964E-003	-6.6156497E+000	0
6.029439847683534E+001	9.3704080E-003	-6.5621934E+000	0
6.029599847679492E+001	9.3322312E-003	-6.5017376E+000	0
6.029739847675955E+001	9.4849374E-003	-6.4476442E+000	0
6.029919847671408E+001	9.4276723E-003	-6.3941889E+000	0
6.030079847667366E+001	9.3131429E-003	-6.3400965E+000	0
6.030259847662819E+001	9.3704080E-003	-6.2815495E+000	0
6.030439847658272E+001	9.2558777E-003	-6.2230024E+000	0
6.030619847653725E+001	9.3704080E-003	-6.1682734E+000	0
6.030799847649178E+001	9.4276723E-003	-6.1078172E+000	0
6.030999847644125E+001	9.3322312E-003	-6.0486336E+000	0
6.031179847639578E+001	9.3131429E-003	-5.9977231E+000	0
6.031359847635031E+001	9.3894964E-003	-5.9474487E+000	0
6.031539847630484E+001	9.3322312E-003	-5.8965387E+000	0
6.031719847625936E+001	9.4467606E-003	-5.8443551E+000	0
6.031899847621389E+001	9.3704080E-003	-5.7921720E+000	0
6.032099847616337E+001	9.4467606E-003	-5.7368064E+000	0
6.032299847611284E+001	9.3322312E-003	-5.6846237E+000	0
6.032479847606737E+001	9.3704080E-003	-5.6324401E+000	0
6.032699847601180E+001	9.3894964E-003	-5.5815296E+000	0
6.032879847596632E+001	9.2940545E-003	-5.5280738E+000	0
6.033139847590064E+001	9.4085848E-003	-5.4758902E+000	0
6.033339847585012E+001	9.3704080E-003	-5.4237070E+000	0
6.033559847579454E+001	9.3131429E-003	-5.3715239E+000	0
6.033739847574907E+001	9.3513196E-003	-5.3199768E+000	0
6.034039847567328E+001	9.2940545E-003	-5.2525201E+000	0
6.034319847560255E+001	9.3322312E-003	-5.1958823E+000	0
6.034599847553181E+001	9.4085848E-003	-5.1335168E+000	0
6.034839847547119E+001	9.3322312E-003	-5.0819702E+000	0
6.035099847540550E+001	9.3704080E-003	-5.0316954E+000	0
6.035359847533982E+001	9.4276723E-003	-4.9750581E+000	0
6.035619847527414E+001	9.2749661E-003	-4.9209652E+000	0
6.035899847520341E+001	9.4467606E-003	-4.8649635E+000	0
6.036219847512257E+001	9.3704080E-003	-4.8102350E+000	0
6.036499847505183E+001	9.3322312E-003	-4.7586880E+000	0
6.036819847497100E+001	9.3131429E-003	-4.7052321E+000	0
6.037119847489521E+001	9.4085848E-003	-4.6536846E+000	0
6.037419847481942E+001	9.3131429E-003	-4.5970473E+000	0
6.037719847474364E+001	9.4085848E-003	-4.5448637E+000	0
6.038039847466280E+001	9.3322312E-003	-4.4888620E+000	0
6.038379847457691E+001	9.4085848E-003	-4.4366789E+000	0
6.038719847449102E+001	9.3704080E-003	-4.3844953E+000	0
6.039079847440007E+001	9.3322312E-003	-4.3304033E+000	0
6.039439847430913E+001	9.3513196E-003	-4.2801290E+000	0
6.039799847421818E+001	9.3131429E-003	-4.2285824E+000	0
6.040179847412219E+001	9.2367893E-003	-4.1738534E+000	0
6.040579847402114E+001	9.3704080E-003	-4.1229424E+000	0
6.040919847393525E+001	9.4276723E-003	-4.0720325E+000	0
6.041359847382410E+001	9.3894964E-003	-4.0204854E+000	0
6.041759847372305E+001	9.3704080E-003	-3.9683018E+000	0
6.042179847361695E+001	9.2940545E-003	-3.9161186E+000	0
6.042619847350579E+001	9.4276723E-003	-3.8645718E+000	0
6.043059847339464E+001	9.3131429E-003	-3.8123884E+000	0
6.043539847327338E+001	9.3894964E-003	-3.7589324E+000	0
6.044039847314707E+001	9.2940545E-003	-3.7080219E+000	0
6.044519847302581E+001	9.3704080E-003	-3.6552024E+000	0
6.044999847290455E+001	9.3513196E-003	-3.6042919E+000	0
6.045519847277319E+001	9.2940545E-003	-3.5495632E+000	0
6.046119847262162E+001	9.3322312E-003	-3.4961069E+000	0
6.046699847247510E+001	9.4849374E-003	-3.4439235E+000	0
6.047259847233363E+001	9.4085848E-003	-3.3923764E+000	0
6.050359847155050E+001	9.2940545E-003	-3.1600859E+000	0
6.051039847137872E+001	9.3513196E-003	-3.1093137E+000	0
6.051739847120189E+001	9.3322312E-003	-3.0584779E+000	0
6.052459847102000E+001	9.3131429E-003	-3.0082142E+000	0
6.053199847083306E+001	9.3894964E-003	-2.9582055E+000	0
6.053979847063601E+001	9.3322312E-003	-2.9074967E+000	0
6.054759847043897E+001	9.3513196E-003	-2.8567877E+000	0
6.055619847022172E+001	9.3513196E-003	-2.8059518E+000	0
6.056479847000446E+001	9.2940545E-003	-2.7548614E+000	0
6.057379846977710E+001	9.3513196E-003	-2.7038980E+000	0
6.058299846954469E+001	9.3322312E-003	-2.6528077E+000	0
6.059279846929712E+001	9.3513196E-003	-2.6021624E+000	0
6.060259846904955E+001	9.3513196E-003	-2.5518992E+000	0
6.061299846878683E+001	9.3322312E-003	-2.5013177E+000	0
6.062359846851905E+001	9.4085848E-003	-2.4507997E+000	0
6.063479846823611E+001	9.3131429E-003	-2.4007275E+000	0
6.064659846793802E+001	9.3322312E-003	-2.3503368E+000	0
6.065859846763487E+001	9.3131429E-003	-2.3000731E+000	0
6.067119846731657E+001	9.4467606E-003	-2.2499371E+000	0
6.068439846698311E+001	9.3322312E-003	-2.1993556E+000	0
6.069839846662944E+001	9.4085848E-003	-2.1490922E+000	0
6.071299846626061E+001	9.3322312E-003	-2.0990834E+000	0
6.072759846589179E+001	9.3322312E-003	-2.0488834E+000	0
6.074399846547749E+001	9.3131429E-003	-1.9979838E+000	0
6.076099846504803E+001	9.4085848E-003	-1.9475296E+000	0
6.077839846460847E+001	9.2367893E-003	-1.8975207E+000	0
6.079719846413354E+001	9.3704080E-003	-1.8472575E+000	0
6.081699846363335E+001	9.3131429E-003	-1.7965486E+000	0
6.083799846310285E+001	9.3704080E-003	-1.7462215E+000	0
6.085999846254708E+001	9.3322312E-003	-1.6962126E+000	0
6.088419846193574E+001	9.3322312E-003	-1.6461402E+000	0
6.090899846130924E+001	9.3894964E-003	-1.5958132E+000	0
6.093659846061200E+001	9.3131429E-003	-1.5449772E+000	0
6.096599845986930E+001	9.3894964E-003	-1.4943957E+000	0
6.099739845907607E+001	9.3131429E-003	-1.4440688E+000	0
6.103199845820200E+001	9.2749661E-003	-1.3938689E+000	0
6.106879845727235E+001	9.3513196E-003	-1.3434783E+000	0
6.110919845625176E+001	9.3322312E-003	-1.2931513E+000	0
6.115319845514023E+001	9.3322312E-003	-1.2428880E+000	0
6.120159845391754E+001	9.3894964E-003	-1.1924337E+000	0
6.125519845256349E+001	9.2749661E-003	-1.1421703E+000	0
6.131339845109324E+001	9.4276723E-003	-1.0919069E+000	0
6.137879844944109E+001	9.4276723E-003	-1.0416436E+000	0
6.145099844761717E+001	9.2940545E-003	-9.9163461E-001	0
6.153379844552546E+001	9.2940545E-003	-9.4143480E-001	0
6.162659844318114E+001	9.3704080E-003	-8.9129871E-001	0
6.173119844053872E+001	9.3513196E-003	-8.4097177E-001	0
6.185379843744158E+001	9.3894964E-003	-7.9064465E-001	0
6.199399843389983E+001	9.4276723E-003	-7.4044502E-001	0
6.215839842974674E+001	9.3704080E-003	-6.9043612E-001	0
6.235499842478021E+001	9.3894964E-003	-6.4042723E-001	0
6.259479841872235E+001	9.3894964E-003	-5.9010023E-001	0
6.288419841141149E+001	9.3894964E-003	-5.4009134E-001	0
6.325299840209482E+001	9.4085848E-003	-4.9008241E-001	0
6.375859838932229E+001	9.3131429E-003	-4.4001168E-001	0
6.441339837278065E+001	9.3322312E-003	-3.9000303E-001	0
6.505279835662805E+001	9.3513196E-003	-3.5438716E-001	0
6.505339835659834E+001	9.3131429E-003	-3.5366786E-001	0
6.628579832546529E+001	9.3513196E-003	-3.0358288E-001	0
6.826479827547155E+001	9.2367893E-003	-2.5351059E-001	0
7.181899818568490E+001	9.3513196E-003	-2.0348290E-001	0
7.919499799935147E+001	9.3322312E-003	-1.5341699E-001	0
8.919499774673022E+001	9.3513196E-003	-1.2030284E-001	0
9.919499749410897E+001	9.3704080E-003	-1.0116766E-001	0
1.091949972414877E+002	9.3704080E-003	-8.7869801E-002	0
1.191949969888665E+002	9.2558777E-003	-7.6583497E-002	0
1.291949967362452E+002	9.3704080E-003	-6.7557000E-002	0
1.391949964836240E+002	9.5231142E-003	-6.0408361E-002	0
1.491949962310027E+002	9.2558777E-003	-5.4832041E-002	0
1.591949959783815E+002	9.3894964E-003	-5.0630707E-002	0
1.691949957257602E+002	9.3513196E-003	-4.6722192E-002	0
1.791949954731390E+002	9.3704080E-003	-4.3543626E-002	0
1.891949952205177E+002	9.4085848E-003	-4.0818837E-002	0
1.991949949678965E+002	9.3894964E-003	-3.8349859E-002	0
2.091949947152752E+002	9.3322312E-003	-3.6206044E-002	0
2.191949944626540E+002	9.4276723E-003	-3.4330763E-002	0
2.291949942100327E+002	9.2558777E-003	-3.2682650E-002	0
2.391949939574115E+002	9.2940545E-003	-3.1080360E-002	0
2.491949937047902E+002	9.3131429E-003	-2.9723056E-002	0
2.591949934521690E+002	9.4085848E-003	-2.8491111E-002	0
2.691949931995478E+002	9.4276723E-003	-2.7411886E-002	0
2.791949929469265E+002	9.3704080E-003	-2.6151305E-002	0
2.891949926943053E+002	9.2940545E-003	-2.5296709E-002	0
2.991949924416840E+002	9.4085848E-003	-2.4331387E-002	0
3.091949921890628E+002	9.3704080E-003	-2.3580510E-002	0
3.191949919364415E+002	9.3322312E-003	-2.2935266E-002	0
3.291949916838203E+002	9.4276723E-003	-2.2166574E-002	0
3.391949914311990E+002	9.2940545E-003	-2.1456422E-002	0
3.491949911785778E+002	9.4085848E-003	-2.0884993E-002	0
3.591949909259565E+002	9.3513196E-003	-2.0217476E-002	0
3.691949906733353E+002	9.2940545E-003	-2.0403288E-002	0
3.791949904207140E+002	9.3322312E-003	-1.9269975E-002	0
3.891949901680928E+002	9.3704080E-003	-1.8791450E-002	0
3.991949899154715E+002	9.2749661E-003	-1.8004937E-002	0
4.091949896628503E+002	9.3513196E-003	-1.7553141E-002	0
4.191949894102290E+002	9.4276723E-003	-1.7180884E-002	0
4.291949891576078E+002	9.3513196E-003	-1.6790811E-002	0
4.391949889049865E+002	9.3322312E-003	-1.6353646E-002	0
4.491949886523653E+002	9.3322312E-003	-1.5937485E-002	0
4.591949883997440E+002	9.2940545E-003	-1.5703313E-002	0
4.691949881471228E+002	9.2940545E-003	-1.5243242E-002	0
4.791949878945015E+002	9.3322312E-003	-1.4982346E-002	0
4.891949876418803E+002	9.3131429E-003	-1.4738629E-002	0
4.991949873892590E+002	9.3513196E-003	-1.4324374E-002	0
5.091949871366378E+002	9.2558777E-003	-1.4088294E-002	0
5.191949868840165E+002	9.4467606E-003	-1.4673087E-002	0
5.291949866313953E+002	9.4085848E-003	-1.3915211E-002	0
5.391949863787740E+002	9.3513196E-003	-1.3652404E-002	0
5.491949861261528E+002	9.3704080E-003	-1.3139518E-002	0
5.591949858735316E+002	9.3513196E-003	-1.2800987E-002	0
5.691949856209103E+002	9.3513196E-003	-1.2409640E-002	0
5.791949853682891E+002	9.3704080E-003	-1.2286829E-002	0
5.891949851156678E+002	9.2749661E-003	-1.2052656E-002	0
5.991949848630466E+002	9.4276723E-003	-1.1947026E-002	0
6.091949846104253E+002	9.2558777E-003	-1.1681037E-002	0
6.191949843578041E+002	9.3513196E-003	-1.1520044E-002	0
6.291949841051828E+002	9.3322312E-003	-1.1226057E-002	0
6.391949838525616E+002	9.3704080E-003	-1.1081609E-002	0
6.491949835999403E+002	9.4085848E-003	-1.0860164E-002	0
6.591949833473191E+002	9.3704080E-003	-1.0636174E-002	0
6.691949830946978E+002	9.3513196E-003	-1.0475182E-002	0
6.791949828420766E+002	9.3131429E-003	-1.0375276E-002	0
6.891949825894553E+002	9.3704080E-003	-1.0102924E-002	0
6.991949823368341E+002	9.4085848E-003	-1.0020837E-002	0
7.091949820842128E+002	9.4658490E-003	-9.8585710E-003	0
7.191949818315916E+002	9.3322312E-003	-9.7408500E-003	0
7.291949815789703E+002	9.2367893E-003	-9.5658582E-003	0
7.391949813263491E+002	9.3894964E-003	-9.5041329E-003	0
7.491949810737278E+002	9.2749661E-003	-9.3520498E-003	0
7.591949808211066E+002	9.3513196E-003	-9.1134235E-003	0
7.691949805684853E+002	9.3513196E-003	-9.2044193E-003	0
7.791949803158641E+002	9.3704080E-003	-8.8849785E-003	0
7.891949800632428E+002	9.4658490E-003	-8.8353446E-003	0
7.991949798106216E+002	9.3513196E-003	-8.5954461E-003	0
8.091949795580003E+002	9.3704080E-003	-8.7118950E-003	0
8.191949793053791E+002	9.2940545E-003	-8.6126272E-003	0
8.291949790527578E+002	9.3704080E-003	-8.4223635E-003	0
8.391949788001366E+002	9.2558777E-003	-8.2276445E-003	0
8.491949785475153E+002	9.3513196E-003	-8.1659192E-003	0
8.591949782948941E+002	9.2940545E-003	-8.0233803E-003	0
8.691949780422729E+002	9.3513196E-003	-7.8553883E-003	0
8.791949777896516E+002	9.3704080E-003	-7.7141211E-003	0
8.891949775370304E+002	9.4085848E-003	-7.7383025E-003	0
8.991949772844091E+002	9.3704080E-003	-7.5734914E-003	0
9.091949770317879E+002	9.3131429E-003	-7.5353109E-003	0
9.191949767791666E+002	9.3894964E-003	-7.4544963E-003	0
9.291949765265454E+002	9.3131429E-003	-7.3736822E-003	0
9.391949762739241E+002	9.3131429E-003	-7.2655049E-003	0
9.491949760213029E+002	9.3704080E-003	-7.3272288E-003	0
9.591949757686816E+002	9.3322312E-003	-7.0733316E-003	0
9.691949755160604E+002	9.2940545E-003	-7.0326063E-003	0
9.791949752634391E+002	9.3322312E-003	-6.8162521E-003	0
9.891949750108179E+002	9.4085848E-003	-7.0911492E-003	0
9.991949747581966E+002	9.3894964E-003	-6.6832583E-003	0
1.009194974505575E+003	9.3513196E-003	-6.6896211E-003	0
1.019194974252954E+003	9.3131429E-003	-6.5369010E-003	0
1.029194974000333E+003	9.3704080E-003	-6.5050842E-003	0
1.039194973747712E+003	9.4467606E-003	-6.4599044E-003	0
1.049194973495090E+003	9.3513196E-003	-6.4325416E-003	0
1.059194973242469E+003	9.2940545E-003	-6.3434546E-003	0
1.069194972989848E+003	9.3322312E-003	-6.2766396E-003	0
1.079194972737227E+003	9.4467606E-003	-6.1474633E-003	0
1.089194972484605E+003	9.2940545E-003	-6.1582811E-003	0
1.099194972231984E+003	9.4467606E-003	-6.0437410E-003	0
1.109194971979363E+003	9.3131429E-003	-5.9661078E-003	0
1.119194971726742E+003	9.3513196E-003	-5.9438366E-003	0
1.129194971474120E+003	9.3704080E-003	-5.8751120E-003	0
1.139194971221499E+003	9.3704080E-003	-5.7497537E-003	0
1.149194970968878E+003	9.2940545E-003	-5.8522038E-003	0
1.159194970716257E+003	9.3704080E-003	-5.7274820E-003	0
1.169194970463635E+003	9.3513196E-003	-5.6320317E-003	0
1.179194970211014E+003	9.2558777E-003	-5.5270363E-003	0
1.189194969958393E+003	9.3131429E-003	-5.5308542E-003	0
1.199194969705772E+003	9.2558777E-003	-5.4309499E-003	0
1.209194969453150E+003	9.3894964E-003	-5.2788653E-003	0
1.219194969200529E+003	9.3513196E-003	-5.2674115E-003	0
1.229194968947908E+003	9.3894964E-003	-5.1821428E-003	0
1.239194968695287E+003	9.3513196E-003	-5.2438672E-003	0
1.249194968442665E+003	9.3704080E-003	-5.1745069E-003	0
1.259194968190044E+003	9.3704080E-003	-5.1178727E-003	0
1.269194967937423E+003	9.3322312E-003	-5.1026004E-003	0
1.279194967684802E+003	9.3704080E-003	-5.0141499E-003	0
1.289194967432180E+003	9.3513196E-003	-4.9301535E-003	0
1.299194967179559E+003	9.4085848E-003	-4.9174270E-003	0
1.309194966926938E+003	9.3894964E-003	-4.8423391E-003	0
1.319194966674317E+003	9.3513196E-003	-4.7602518E-003	0
1.329194966421695E+003	9.3322312E-003	-4.7837966E-003	0
1.339194966169074E+003	9.3513196E-003	-4.6527111E-003	0
1.349194965916453E+003	9.3131429E-003	-4.5820782E-003	0
1.359194965663832E+003	9.3131429E-003	-4.7150725E-003	0
1.369194965411210E+003	9.4085848E-003	-4.5916233E-003	0
1.379194965158589E+003	9.4276723E-003	-4.4834460E-003	0
1.389194964905968E+003	9.3894964E-003	-4.5307414E-003	0
1.399194964653347E+003	9.3322312E-003	-4.4760434E-003	0
1.409194964400725E+003	9.4085848E-003	-4.4603790E-003	0
1.419194964148104E+003	9.3513196E-003	-4.3760077E-003	0
1.429194963895483E+003	9.2749661E-003	-4.3408582E-003	0
1.439194963642862E+003	9.4085848E-003	-4.3449975E-003	0
1.449194963390240E+003	9.3704080E-003	-4.2647654E-003	0
1.459194963137619E+003	9.3131429E-003	-4.2448347E-003	0
1.469194962884998E+003	9.3131429E-003	-4.1911555E-003	0
1.479194962632377E+003	9.3513196E-003	-4.1687414E-003	0
1.489194962379755E+003	9.4085848E-003	-4.1198381E-003	0
1.499194962127134E+003	9.3894964E-003	-4.0741186E-003	0
1.509194961874513E+003	9.3131429E-003	-4.3260860E-003	0
1.519194961621892E+003	9.3894964E-003	-4.0191021E-003	0
1.529194961369270E+003	9.3894964E-003	-3.9630034E-003	0
1.539194961116649E+003	9.4276723E-003	-4.0119705E-003	0
1.549194960864028E+003	9.4085848E-003	-3.8976714E-003	0
1.559194960611407E+003	9.3131429E-003	-3.8723918E-003	0
1.569194960358785E+003	9.3131429E-003	-3.8528433E-003	0
1.579194960106164E+003	9.2367893E-003	-3.8156563E-003	0
1.589194959853543E+003	9.4085848E-003	-3.7573925E-003	0
1.599194959600922E+003	9.2558777E-003	-3.7240901E-003	0
1.609194959348300E+003	9.3704080E-003	-3.7158120E-003	0
1.619194959095679E+003	9.3513196E-003	-3.7163212E-003	0
1.629194958843058E+003	9.3322312E-003	-3.6414377E-003	0
1.639194958590437E+003	9.3131429E-003	-3.5785260E-003	0
1.649194958337815E+003	9.4276723E-003	-3.5656632E-003	0
1.659194958085194E+003	9.4658490E-003	-3.5763609E-003	0
1.669194957832573E+003	9.4467606E-003	-3.5287947E-003	0
1.679194957579952E+003	9.4276723E-003	-3.5298136E-003	0
1.689194957327330E+003	9.4658490E-003	-3.4951097E-003	0
1.699194957074709E+003	9.3322312E-003	-3.4622527E-003	0
1.709194956822088E+003	9.3513196E-003	-3.4126490E-003	0
1.719194956569467E+003	9.2940545E-003	-3.3886430E-003	0
1.729194956316845E+003	9.2749661E-003	-3.3831669E-003	0
1.739194956064224E+003	9.2940545E-003	-3.3286603E-003	0
1.749194955811603E+003	9.3131429E-003	-3.2747900E-003	0
1.759194955558982E+003	9.4467606E-003	-3.2835775E-003	0
1.769194955306361E+003	9.4658490E-003	-3.2336551E-003	0
1.779194955053739E+003	9.4467606E-003	-3.2306623E-003	0
1.789194954801118E+003	9.4085848E-003	-3.2299615E-003	0
1.799194954548497E+003	9.3894964E-003	-3.1896546E-003	0
1.809194954295876E+003	9.3513196E-003	-3.1755185E-003	0
1.819194954043254E+003	9.4276723E-003	-3.1150898E-003	0
1.829194953790633E+003	9.3513196E-003	-3.1055384E-003	0
1.839194953538012E+003	9.3131429E-003	-3.0880275E-003	0
1.849194953285391E+003	9.3131429E-003	-3.0621751E-003	0
1.859194953032769E+003	9.3513196E-003	-2.9698443E-003	0
1.869194952780148E+003	9.3131429E-003	-3.0133990E-003	0
1.879194952527527E+003	9.4467606E-003	-2.9741107E-003	0
1.889194952274906E+003	9.4085848E-003	-3.0056303E-003	0
1.899194952022284E+003	9.4467606E-003	-2.9159745E-003	0
1.909194951769663E+003	9.3131429E-003	-2.9252074E-003	0
1.919194951517042E+003	9.3322312E-003	-2.9267990E-003	0
1.929194951264421E+003	9.3322312E-003	-2.8896125E-003	0
1.939194951011799E+003	9.4467606E-003	-2.8385436E-003	0
1.949194950759178E+003	9.3131429E-003	-2.8521707E-003	0
1.959194950506557E+003	9.3894964E-003	-2.8058144E-003	0
1.969194950253936E+003	9.3513196E-003	-2.7942890E-003	0
1.979194950001314E+003	9.4467606E-003	-2.7786882E-003	0
1.989194949748693E+003	9.2749661E-003	-2.7620052E-003	0
1.999194949496072E+003	9.3131429E-003	-2.7662714E-003	0
2.009194949243451E+003	9.3131429E-003	-2.7262189E-003	0
2.019194948990829E+003	9.2940545E-003	-2.7339873E-003	0
2.029194948738208E+003	9.3131429E-003	-2.6862938E-003	0
2.039194948485587E+003	9.4085848E-003	-2.6860393E-003	0
2.049194948232966E+003	9.4467606E-003	-2.6329332E-003	0
2.059194947980344E+003	9.3513196E-003	-2.6568118E-003	0
2.069194947727723E+003	9.3894964E-003	-2.6175235E-003	0
2.079194947475102E+003	9.2177009E-003	-2.6142125E-003	0
2.089194947222481E+003	9.3513196E-003	-2.5699572E-003	0
2.099194946969859E+003	9.2367893E-003	-2.5600875E-003	0
2.109194946717238E+003	9.3894964E-003	-2.5503449E-003	0
2.119194946464617E+003	9.3704080E-003	-2.5571585E-003	0
2.129194946211996E+003	9.3513196E-003	-2.5328977E-003	0
2.139194945959374E+003	9.3322312E-003	-2.5176154E-003	0
2.149194945706753E+003	9.3894964E-003	-2.5022058E-003	0
2.159194945454132E+003	9.3894964E-003	-2.5147498E-003	0
2.169194945201511E+003	9.3131429E-003	-2.4790913E-003	0
2.179194944948889E+003	9.4467606E-003	-2.4461071E-003	0
2.189194944696268E+003	9.3131429E-003	-2.4494820E-003	0
2.199194944443647E+003	9.4467606E-003	-2.4245845E-003	0
2.209194944191026E+003	9.3322312E-003	-2.4232471E-003	0
2.219194943938404E+003	9.3704080E-003	-2.4115944E-003	0
2.229194943685783E+003	9.4467606E-003	-2.3695044E-003	0
2.239194943433162E+003	9.2558777E-003	-2.3789923E-003	0
2.249194943180541E+003	9.3894964E-003	-2.3947840E-003	0
2.259194942927919E+003	9.3322312E-003	-2.3575332E-003	0
2.269194942675298E+003	9.3322312E-003	-2.3306620E-003	0
2.279194942422677E+003	9.4467606E-003	-2.3255679E-003	0
2.289194942170056E+003	9.3704080E-003	-2.3065924E-003	0
2.299194941917434E+003	9.2940545E-003	-2.2992059E-003	0
2.309194941664813E+003	9.4085848E-003	-2.3176719E-003	0
2.319194941412192E+003	9.4276723E-003	-2.2915646E-003	0
2.329194941159571E+003	9.3894964E-003	-2.2420248E-003	0
2.339194940906949E+003	9.3513196E-003	-2.2461000E-003	0
2.349194940654328E+003	9.2749661E-003	-2.2098045E-003	0
2.359194940401707E+003	9.3131429E-003	-2.2078305E-003	0
2.369194940149086E+003	9.2367893E-003	-2.2157899E-003	0
2.379194939896464E+003	9.3704080E-003	-2.1714712E-003	0
2.389194939643843E+003	9.2749661E-003	-2.1791761E-003	0
2.399194939391222E+003	9.3894964E-003	-2.1742093E-003	0
2.409194939138601E+003	9.3131429E-003	-2.1446636E-003	0
2.419194938885979E+003	9.3513196E-003	-2.1133346E-003	0
2.429194938633358E+003	9.3131429E-003	-2.1286171E-003	0
2.439194938380737E+003	9.3131429E-003	-2.1315461E-003	0
2.449194938128116E+003	9.2749661E-003	-2.0962057E-003	0
2.459194937875494E+003	9.3894964E-003	-2.0920031E-003	0
2.469194937622873E+003	9.3704080E-003	-2.0920031E-003	0
2.479194937370252E+003	9.3704080E-003	-2.0741739E-003	0
2.489194937117631E+003	9.4085848E-003	-2.0533516E-003	0
2.499194936865009E+003	9.3894964E-003	-2.0654502E-003	0
2.509194936612388E+003	9.4276723E-003	-2.0501679E-003	0
2.519194936359767E+003	9.3894964E-003	-2.0019650E-003	0
2.529194936107146E+003	9.2940545E-003	-2.0008190E-003	0
2.539194935854524E+003	9.4276723E-003	-2.0185844E-003	0
2.549194935601903E+003	9.4085848E-003	-1.9856638E-003	0
2.559194935349282E+003	9.4085848E-003	-1.9899937E-003	0
2.569194935096661E+003	9.3894964E-003	-1.9593018E-003	0
2.579194934844039E+003	9.3131429E-003	-1.9778316E-003	0
2.589194934591418E+003	9.2558777E-003	-1.9566272E-003	0
2.599194934338797E+003	9.3894964E-003	-1.9337676E-003	0
2.609194934086176E+003	9.2558777E-003	-1.9110352E-003	0
2.619194933833554E+003	9.4276723E-003	-1.9069598E-003	0
2.629194933580933E+003	9.2940545E-003	-1.9068961E-003	0
2.639194933328312E+003	9.3513196E-003	-1.8807251E-003	0
2.649194933075691E+003	9.3513196E-003	-1.8704733E-003	0
2.659194932823069E+003	9.4849374E-003	-1.9060047E-003	0
2.669194932570448E+003	9.3513196E-003	-1.8595210E-003	0
2.679194932317827E+003	9.3513196E-003	-1.8327771E-003	0
2.689194932065206E+003	9.3131429E-003	-1.8327134E-003	0
2.699194931812584E+003	9.3704080E-003	-1.8467857E-003	0
2.709194931559963E+003	9.4085848E-003	-1.8792605E-003	0
2.719194931307342E+003	9.4085848E-003	-1.8009387E-003	0
2.729194931054721E+003	9.3322312E-003	-1.8049503E-003	0
2.739194930802099E+003	9.3322312E-003	-1.7809445E-003	0
2.749194930549478E+003	9.3704080E-003	-1.8097898E-003	0
2.759194930296857E+003	9.4085848E-003	-1.7630515E-003	0
2.769194930044236E+003	9.3704080E-003	-1.7883308E-003	0
2.779194929791614E+003	9.2749661E-003	-1.8094715E-003	0
2.789194929538993E+003	9.3894964E-003	-1.7731123E-003	0
2.799194929286372E+003	9.2940545E-003	-1.7606955E-003	0
2.809194929033751E+003	9.2367893E-003	-1.7491063E-003	0
2.819194928781129E+003	9.1986125E-003	-1.7599313E-003	0
2.829194928528508E+003	9.4276723E-003	-1.7359890E-003	0
2.839194928275887E+003	9.2940545E-003	-1.7556649E-003	0
2.849194928023266E+003	9.2558777E-003	-1.6956819E-003	0
2.859194927770644E+003	9.2367893E-003	-1.6934534E-003	0
2.869194927518023E+003	9.3513196E-003	-1.6869582E-003	0
2.879194927265402E+003	9.3513196E-003	-1.6883592E-003	0
2.889194927012781E+003	9.4849374E-003	-1.6587497E-003	0
2.899194926760159E+003	9.3894964E-003	-1.6823736E-003	0
2.909194926507538E+003	9.4658490E-003	-1.6693837E-003	0
2.919194926254917E+003	9.3513196E-003	-1.6640985E-003	0
2.929194926002296E+003	9.3894964E-003	-1.6815456E-003	0
2.939194925749674E+003	9.3513196E-003	-1.7347155E-003	0
2.949194925497053E+003	9.3704080E-003	-1.6842840E-003	0
2.959194925244432E+003	9.4849374E-003	-1.6348711E-003	0
2.969194924991811E+003	9.3894964E-003	-1.6108014E-003	0
2.979194924739189E+003	9.3704080E-003	-1.6495166E-003	0
2.989194924486568E+003	9.3513196E-003	-1.6233457E-003	0
2.999194924233947E+003	9.3704080E-003	-1.5873049E-003	0
3.009194923981326E+003	9.2367893E-003	-1.6206714E-003	0
3.019194923728704E+003	9.2749661E-003	-1.5971110E-003	0
3.029194923476083E+003	9.2367893E-003	-1.5783266E-003	0
3.039194923223462E+003	9.4085848E-003	-1.5859677E-003	0
3.049194922970841E+003	9.2940545E-003	-1.6226452E-003	0
3.059194922718219E+003	9.3894964E-003	-1.5624710E-003	0
3.069194922465598E+003	9.2940545E-003	-1.5410123E-003	0
3.079194922212977E+003	9.2940545E-003	-1.5501817E-003	0
3.089194921960356E+003	9.3894964E-003	-1.5189804E-003	0
3.099194921707734E+003	9.4276723E-003	-1.5429863E-003	0
3.109194921455113E+003	9.4085848E-003	-1.5319067E-003	0
3.119194921202492E+003	9.4276723E-003	-1.5352176E-003	0
3.129194920949871E+003	9.3131429E-003	-1.5057994E-003	0
3.139194920697249E+003	9.3704080E-003	-1.5251569E-003	0
3.149194920444628E+003	9.3894964E-003	-1.5007689E-003	0
3.159194920192007E+003	9.4276723E-003	-1.5081554E-003	0
3.169194919939386E+003	9.2558777E-003	-1.5069455E-003	0
3.179194919686764E+003	9.4467606E-003	-1.5036343E-003	0
3.189194919434143E+003	9.4276723E-003	-1.5093015E-003	0
3.199194919181522E+003	9.4276723E-003	-1.4695039E-003	0
3.209194918928901E+003	9.2367893E-003	-1.4581695E-003	0
3.219194918676279E+003	9.2940545E-003	-1.4459436E-003	0
3.229194918423658E+003	9.4467606E-003	-1.4517382E-003	0
3.239194918171037E+003	9.3131429E-003	-1.4365196E-003	0
3.249194917918416E+003	9.3894964E-003	-1.4395122E-003	0
3.259194917665794E+003	9.2940545E-003	-1.4346092E-003	0
3.269194917413173E+003	9.4467606E-003	-1.4206005E-003	0
3.279194917160552E+003	9.2940545E-003	-1.4316801E-003	0
3.289194916907931E+003	9.4085848E-003	-1.4025164E-003	0
3.299194916655310E+003	9.4085848E-003	-1.4174803E-003	0
3.309194916402688E+003	9.4276723E-003	-1.3971676E-003	0
3.319194916150067E+003	9.3131429E-003	-1.4091387E-003	0
3.329194915897446E+003	9.3894964E-003	-1.4035351E-003	0
3.339194915644825E+003	9.3704080E-003	-1.4148060E-003	0
3.349194915392203E+003	9.3131429E-003	-1.3859606E-003	0
3.359194915139582E+003	9.3322312E-003	-1.3637375E-003	0
3.369194914886961E+003	9.2558777E-003	-1.3833498E-003	0
3.379194914634340E+003	9.4085848E-003	-1.3889533E-003	0
3.389194914381718E+003	9.3894964E-003	-1.3641196E-003	0
3.399194914129097E+003	9.3322312E-003	-1.3367388E-003	0
3.409194913876476E+003	9.3894964E-003	-1.3545045E-003	0
3.419194913623855E+003	9.3131429E-003	-1.3535492E-003	0
3.429194913371233E+003	9.3513196E-003	-1.3568605E-003	0
3.439194913118612E+003	9.5040258E-003	-1.3485189E-003	0
3.449194912865991E+003	9.4085848E-003	-1.3076388E-003	0
3.459194912613370E+003	9.4085848E-003	-1.3222205E-003	0
3.469194912360748E+003	9.3704080E-003	-1.3272511E-003	0
3.479194912108127E+003	9.4085848E-003	-1.3041365E-003	0
3.489194911855506E+003	9.4276723E-003	-1.3219659E-003	0
3.499194911602885E+003	9.2940545E-003	-1.2985967E-003	0
3.509194911350263E+003	9.3894964E-003	-1.2924838E-003	0
3.519194911097642E+003	9.3513196E-003	-1.2725530E-003	0
3.529194910845021E+003	9.3322312E-003	-1.2917833E-003	0
3.539194910592400E+003	9.4658490E-003	-1.2907645E-003	0
3.549194910339778E+003	9.2558777E-003	-1.2905735E-003	0
3.559194910087157E+003	9.3704080E-003	-1.2727440E-003	0
3.569194909834536E+003	9.3513196E-003	-1.2920380E-003	0
3.579194909581915E+003	9.3513196E-003	-1.2696875E-003	0
3.589194909329293E+003	9.3894964E-003	-1.2625559E-003	0
3.599194909076672E+003	9.3322312E-003	-1.2789845E-003	0
3.609194908824051E+003	9.3704080E-003	-1.2889180E-003	0
3.619194908571430E+003	9.2749661E-003	-1.2628743E-003	0
3.629194908318808E+003	9.2940545E-003	-1.2676500E-003	0
3.639194908066187E+003	9.3704080E-003	-1.2526225E-003	0
3.649194907813566E+003	9.3894964E-003	-1.2600089E-003	0
3.659194907560945E+003	9.3322312E-003	-1.2589263E-003	0
3.669194907308323E+003	9.3513196E-003	-1.2279161E-003	0
3.679194907055702E+003	9.3894964E-003	-1.2542780E-003	0
3.689194906803081E+003	9.3322312E-003	-1.2205297E-003	0
3.699194906550460E+003	9.3513196E-003	-1.2192560E-003	0
3.709194906297838E+003	9.3131429E-003	-1.2338379E-003	0
3.719194906045217E+003	9.2940545E-003	-1.2076033E-003	0
3.729194905792596E+003	9.2558777E-003	-1.2165817E-003	0
3.739194905539975E+003	9.3704080E-003	-1.1878636E-003	0
3.749194905287353E+003	9.3513196E-003	-1.2045469E-003	0
3.759194905034732E+003	9.4658490E-003	-1.2183009E-003	0
3.769194904782111E+003	9.3322312E-003	-1.1928304E-003	0
3.779194904529490E+003	9.3704080E-003	-1.1956322E-003	0
3.789194904276868E+003	9.3704080E-003	-1.1925120E-003	0
3.799194904024247E+003	9.3704080E-003	-1.2178553E-003	0
3.809194903771626E+003	9.3894964E-003	-1.1702890E-003	0
3.819194903519005E+003	9.3322312E-003	-1.1964600E-003	0
3.829194903266383E+003	9.4085848E-003	-1.1960142E-003	0
3.839194903013762E+003	9.3894964E-003	-1.1564075E-003	0
3.849194902761141E+003	9.3513196E-003	-1.1555798E-003	0
3.859194902508520E+003	9.2940545E-003	-1.1517592E-003	0
3.869194902255898E+003	9.3704080E-003	-1.1385783E-003	0
3.879194902003277E+003	9.3894964E-003	-1.1409343E-003	0
3.889194901750656E+003	9.2558777E-003	-1.1292815E-003	0
3.899194901498035E+003	9.4276723E-003	-1.1704164E-003	0
3.909194901245413E+003	9.3894964E-003	-1.1483207E-003	0
3.919194900992792E+003	9.2177009E-003	-1.1314466E-003	0
3.929194900740171E+003	9.3322312E-003	-1.1697160E-003	0
3.939194900487550E+003	9.4276723E-003	-1.1402975E-003	0
3.949194900234928E+003	9.4849374E-003	-1.1317013E-003	0
3.959194899982307E+003	9.3131429E-003	-1.1309371E-003	0
3.969194899729686E+003	9.3131429E-003	-1.1228501E-003	0
3.979194899477065E+003	9.4467606E-003	-1.1249515E-003	0
3.989194899224443E+003	9.4276723E-003	-1.1201121E-003	0
3.999194898971822E+003	9.3131429E-003	-1.0975071E-003	0
4.009194898719201E+003	9.3704080E-003	-1.0899933E-003	0
4.019194898466580E+003	9.4467606E-003	-1.1080137E-003	0
4.029194898213958E+003	9.4085848E-003	-1.1040657E-003	0
4.039194897961337E+003	9.2367893E-003	-1.0779584E-003	0
4.049194897708716E+003	9.3513196E-003	-1.1044478E-003	0
4.059194897456095E+003	9.3131429E-003	-1.0917125E-003	0
4.069194897203473E+003	9.3704080E-003	-1.1109427E-003	0
4.079194896950852E+003	9.4467606E-003	-1.0723548E-003	0
4.089194896698231E+003	9.3322312E-003	-1.0740741E-003	0
4.099194896487650E+003	9.3131429E-003	-1.0698079E-003	0
4.109194896366578E+003	9.3513196E-003	-1.0909484E-003	0
4.119194896245506E+003	9.3513196E-003	-1.0847717E-003	0
4.129194896124434E+003	9.2940545E-003	-1.0743926E-003	0
4.139194896003362E+003	9.3131429E-003	-1.0758571E-003	0
4.149194895882290E+003	9.4276723E-003	-1.0652868E-003	0
4.159194895761219E+003	9.3704080E-003	-1.0694895E-003	0
4.169194895640147E+003	9.2749661E-003	-1.0367599E-003	0
4.179194895519075E+003	9.3704080E-003	-1.0510234E-003	0
4.189194895398003E+003	9.3704080E-003	-1.0443373E-003	0
4.199194895276931E+003	9.3513196E-003	-1.0196309E-003	0
4.209194895155859E+003	9.4467606E-003	-1.0498771E-003	0
4.219194895034787E+003	9.4085848E-003	-1.0402621E-003	0
4.229194894913715E+003	9.2940545E-003	-1.0586645E-003	0
4.239194894792643E+003	9.2940545E-003	-1.0396253E-003	0
4.249194894671571E+003	9.3513196E-003	-1.0182300E-003	0
4.259194894550499E+003	9.3894964E-003	-1.0363141E-003	0
4.269194894429427E+003	9.3513196E-003	-1.0065773E-003	0
4.279194894308355E+003	9.2749661E-003	-9.9689851E-004	0
4.289194894187283E+003	9.4085848E-003	-1.0320478E-003	0
4.299194894066211E+003	9.3704080E-003	-1.0175296E-003	0
4.309194893945139E+003	9.3322312E-003	-1.0210318E-003	0
4.319194893824068E+003	9.3322312E-003	-1.0209682E-003	0
4.329194893702996E+003	9.3131429E-003	-9.9587964E-004	0
4.339194893581924E+003	9.3131429E-003	-1.0051765E-003	0
4.349194893460852E+003	9.3894964E-003	-1.0173386E-003	0
4.359194893339780E+003	9.3704080E-003	-1.0154920E-003	0
4.369194893218708E+003	9.3704080E-003	-9.9352363E-004	0
4.379194893097636E+003	9.2940545E-003	-1.0124355E-003	0
4.389194892976564E+003	9.3322312E-003	-9.9893601E-004	0
4.399194892855492E+003	9.3322312E-003	-9.9906349E-004	0
4.409194892734420E+003	9.4467606E-003	-9.5932948E-004	0
4.419194892613348E+003	9.3131429E-003	-9.8435429E-004	0
4.429194892492276E+003	9.3131429E-003	-9.9607068E-004	0
4.439194892371204E+003	9.3704080E-003	-9.7327458E-004	0
4.449194892250132E+003	9.3894964E-003	-9.7378396E-004	0
4.459194892129060E+003	9.3894964E-003	-9.7225572E-004	0
4.469194892007989E+003	9.3131429E-003	-9.5378963E-004	0
4.479194891886917E+003	9.2940545E-003	-9.6251327E-004	0
4.489194891765845E+003	9.3894964E-003	-9.6614280E-004	0
4.499194891644773E+003	9.4085848E-003	-9.6531498E-004	0
4.509194891523701E+003	9.3131429E-003	-9.5652766E-004	0
4.519194891402629E+003	9.3131429E-003	-9.6302264E-004	0
4.529194891281557E+003	9.3894964E-003	-9.3500508E-004	0
4.539194891160485E+003	9.3704080E-003	-9.4799511E-004	0
4.549194891039413E+003	9.3894964E-003	-9.4194582E-004	0
4.559194890918341E+003	9.5422026E-003	-9.4474753E-004	0
4.569194890797269E+003	9.3322312E-003	-9.5219765E-004	0
4.579194890676197E+003	9.3704080E-003	-9.4920496E-004	0
4.589194890555125E+003	9.3131429E-003	-9.5767382E-004	0
4.599194890434053E+003	9.3704080E-003	-9.3163032E-004	0
4.609194890312981E+003	9.2940545E-003	-9.6467830E-004	0
4.619194890191910E+003	9.3513196E-003	-9.0666913E-004	0
4.629194890070838E+003	9.2940545E-003	-9.4003550E-004	0
4.639194889949766E+003	9.3131429E-003	-9.3850726E-004	0
4.649194889828694E+003	9.2367893E-003	-9.3869836E-004	0
4.659194889707622E+003	9.3131429E-003	-9.2851010E-004	0
4.669194889586550E+003	9.3704080E-003	-8.9648098E-004	0
4.679194889465478E+003	9.4276723E-003	-9.0552296E-004	0
4.689194889344406E+003	9.4085848E-003	-9.4366510E-004	0
4.699194889223334E+003	9.2940545E-003	-9.2800072E-004	0
4.709194889102262E+003	9.4276723E-003	-9.0590504E-004	0
4.719194888981190E+003	9.2558777E-003	-9.1889495E-004	0
4.729194888860118E+003	9.4467606E-003	-9.2277926E-004	0
4.739194888739046E+003	9.3704080E-003	-9.0361270E-004	0
4.749194888617974E+003	9.4849374E-003	-8.8610168E-004	0
4.759194888496902E+003	9.4276723E-003	-8.8954024E-004	0
4.769194888375830E+003	9.4276723E-003	-8.8024349E-004	0
4.779194888254759E+003	9.2367893E-003	-8.8508287E-004	0
4.789194888133687E+003	9.3894964E-003	-9.0342161E-004	0
4.799194888012615E+003	9.4276723E-003	-8.9329708E-004	0
4.809194887891543E+003	9.2940545E-003	-9.1552018E-004	0
4.819194887770471E+003	9.3513196E-003	-9.2182413E-004	0
4.829194887649399E+003	9.4085848E-003	-8.7693229E-004	0
4.839194887528327E+003	9.3894964E-003	-8.9164154E-004	0
4.849194887407255E+003	9.2940545E-003	-8.6738088E-004	0
4.859194887286183E+003	9.3131429E-003	-9.0857944E-004	0
4.869194887165111E+003	9.3704080E-003	-8.9998310E-004	0
4.879194887044039E+003	9.3704080E-003	-8.7801483E-004	0
4.889194886922967E+003	9.2558777E-003	-8.7553140E-004	0
4.899194886801895E+003	9.3322312E-003	-9.1513811E-004	0
4.909194886680823E+003	9.3131429E-003	-9.2596299E-004	0
4.919194886559751E+003	9.3704080E-003	-9.0112927E-004	0
4.929194886438680E+003	9.3513196E-003	-8.7508577E-004	0
4.939194886317608E+003	9.3131429E-003	-8.8559231E-004	0
4.949194886196536E+003	9.4467606E-003	-9.1246370E-004	0
4.959194886075464E+003	9.4276723E-003	-8.9208735E-004	0
4.969194885954392E+003	9.3704080E-003	-8.7578612E-004	0
4.979194885833320E+003	9.4276723E-003	-8.6776295E-004	0
4.989194885712248E+003	9.3322312E-003	-8.5305376E-004	0
4.999194885591176E+003	9.4276723E-003	-8.4305654E-004	0
5.009194885470104E+003	9.3513196E-003	-8.5050665E-004	0
5.019194885349032E+003	9.3894964E-003	-8.7011897E-004	0
5.029194885227960E+003	9.2749661E-003	-8.7088312E-004	0
5.039194885106888E+003	9.4276723E-003	-8.6387864E-004	0
5.049194884985816E+003	9.3322312E-003	-8.8119868E-004	0
5.059194884864744E+003	9.3704080E-003	-8.6878182E-004	0
5.069194884743672E+003	9.3513196E-003	-8.7247498E-004	0
5.079194884622601E+003	9.3894964E-003	-8.6139527E-004	0
5.089194884501529E+003	9.3131429E-003	-8.6400611E-004	0
5.099194884380457E+003	9.4467606E-003	-8.2942983E-004	0
5.109194884259385E+003	9.4085848E-003	-8.5349946E-004	0
5.119194884138313E+003	9.3894964E-003	-8.5279898E-004	0
5.129194884017241E+003	9.2940545E-003	-8.3656155E-004	0
5.139194883896169E+003	9.3513196E-003	-8.5630122E-004	0
5.149194883775097E+003	9.3704080E-003	-8.4120990E-004	0
5.159194883654025E+003	9.3131429E-003	-8.4133726E-004	0
5.169194883532953E+003	9.3894964E-003	-8.4095518E-004	0
5.179194883411881E+003	9.3131429E-003	-8.2777417E-004	0
5.189194883290809E+003	9.3894964E-003	-8.3567010E-004	0
5.199194883169737E+003	9.3894964E-003	-8.1230083E-004	0
5.209194883048665E+003	9.3704080E-003	-8.0988125E-004	0
5.219194882927593E+003	9.4085848E-003	-8.3019392E-004	0
5.229194882806521E+003	9.4085848E-003	-8.1064535E-004	0
5.239194882685450E+003	9.3131429E-003	-8.0612430E-004	0
5.249194882564378E+003	9.3322312E-003	-8.0472342E-004	0
5.259194882443306E+003	9.4276723E-003	-8.0943544E-004	0
5.269194882322234E+003	9.3131429E-003	-8.0771622E-004	0
5.279194882201162E+003	9.4085848E-003	-8.2624593E-004	0
5.289194882080090E+003	9.2940545E-003	-8.0739782E-004	0
5.299194881959018E+003	9.2940545E-003	-8.2790165E-004	0
5.309194881837946E+003	9.3704080E-003	-8.2783791E-004	0
5.319194881716874E+003	9.2940545E-003	-7.9536298E-004	0
5.329194881595802E+003	9.4467606E-003	-7.9848320E-004	0
5.339194881474730E+003	9.3704080E-003	-7.8963209E-004	0
5.349194881353658E+003	9.3704080E-003	-7.8071753E-004	0
5.359194881232586E+003	9.4276723E-003	-7.8612991E-004	0
5.369194881111514E+003	9.3322312E-003	-7.7447726E-004	0
5.379194880990442E+003	9.3322312E-003	-7.7676954E-004	0
5.389194880869371E+003	9.3513196E-003	-7.7479566E-004	0
5.399194880748299E+003	9.3704080E-003	-7.9179712E-004	0
5.409194880627227E+003	9.4467606E-003	-7.8033545E-004	0
5.419194880506155E+003	9.3513196E-003	-7.8600261E-004	0
5.429194880385083E+003	9.4085848E-003	-7.5722090E-004	0
5.439194880264011E+003	9.3894964E-003	-7.5944961E-004	0
5.449194880142939E+003	9.3704080E-003	-7.9351646E-004	0
5.459194880021867E+003	9.3513196E-003	-7.9415314E-004	0
5.469194879900795E+003	9.3513196E-003	-7.6931942E-004	0
5.479194879779723E+003	9.2749661E-003	-7.7021093E-004	0
5.489194879658651E+003	9.3894964E-003	-7.7473198E-004	0
5.499194879537579E+003	9.3322312E-003	-7.8498374E-004	0
5.509194879416507E+003	9.4276723E-003	-7.6562620E-004	0
5.519194879295435E+003	9.3704080E-003	-7.7594182E-004	0
5.529194879174363E+003	9.3704080E-003	-7.5556536E-004	0
5.539194879053292E+003	9.2940545E-003	-7.6524419E-004	0
5.549194878932220E+003	9.3322312E-003	-7.8167260E-004	0
5.559194878811148E+003	9.2749661E-003	-7.7078398E-004	0
5.569194878690076E+003	9.3704080E-003	-7.4652332E-004	0
5.579194878569004E+003	9.3704080E-003	-7.6549890E-004	0
5.589194878447932E+003	9.3704080E-003	-7.4741477E-004	0
5.599194878326860E+003	9.3131429E-003	-7.3703553E-004	0
5.609194878205788E+003	9.3513196E-003	-7.7772461E-004	0
5.619194878084716E+003	9.3894964E-003	-7.2652899E-004	0
5.629194877963644E+003	9.3704080E-003	-7.2754780E-004	0
5.639194877842572E+003	9.3322312E-003	-7.5607473E-004	0
5.649194877721500E+003	9.3894964E-003	-7.6785492E-004	0
5.659194877600428E+003	9.4849374E-003	-7.4289372E-004	0
5.669194877479356E+003	9.3513196E-003	-7.2933076E-004	0
5.679194877358284E+003	9.4085848E-003	-7.1818742E-004	0
5.689194877237213E+003	9.3894964E-003	-7.3302398E-004	0
5.699194877116141E+003	9.3513196E-003	-7.0456066E-004	0
5.709194876995069E+003	9.3704080E-003	-7.2608324E-004	0
5.719194876873997E+003	9.2940545E-003	-7.1175606E-004	0
5.729194876752925E+003	9.2940545E-003	-7.3296030E-004	0
5.739194876631853E+003	9.3894964E-003	-7.2239008E-004	0
5.749194876510781E+003	9.4276723E-003	-7.3245086E-004	0
5.759194876389709E+003	9.3322312E-003	-7.2570116E-004	0
5.769194876268637E+003	9.2940545E-003	-7.3639886E-004	0
5.779194876147565E+003	9.3704080E-003	-7.3041330E-004	0
5.789194876026493E+003	9.4658490E-003	-6.8348378E-004	0
5.799194875905421E+003	9.3513196E-003	-7.2175328E-004	0
5.809194875784349E+003	9.3704080E-003	-6.9462718E-004	0
5.819194875663277E+003	9.3322312E-003	-6.7940855E-004	0
5.829194875542205E+003	9.4085848E-003	-6.8883260E-004	0
5.839194875421133E+003	9.4276723E-003	-7.1462156E-004	0
5.849194875300062E+003	9.2749661E-003	-7.0615258E-004	0
5.859194875178990E+003	9.3704080E-003	-7.0156786E-004	0
5.869194875057918E+003	9.3894964E-003	-6.9169811E-004	0
5.879194874936846E+003	9.3322312E-003	-6.8603089E-004	0
5.889194874815774E+003	9.3704080E-003	-7.1201078E-004	0
5.899194874694702E+003	9.3513196E-003	-6.8424793E-004	0
5.909194874573630E+003	9.3704080E-003	-6.7609735E-004	0
5.919194874452558E+003	9.4085848E-003	-7.0704403E-004	0
5.929194874331486E+003	9.3704080E-003	-7.0748973E-004	0
5.939194874210414E+003	9.2749661E-003	-6.8513944E-004	0
5.949194874089342E+003	9.2749661E-003	-6.7775301E-004	0
5.959194873968270E+003	9.3704080E-003	-7.0742611E-004	0
5.969194873847198E+003	9.2749661E-003	-6.9106132E-004	0
5.979194873726126E+003	9.3894964E-003	-6.9666479E-004	0
5.989194873605054E+003	9.4085848E-003	-6.5100892E-004	0
5.999194873483983E+003	9.3894964E-003	-6.8520306E-004	0
6.009194873362911E+003	9.3894964E-003	-6.7717984E-004	0
6.019194873241839E+003	9.4467606E-003	-6.8743178E-004	0
6.029194873120767E+003	9.3894964E-003	-6.6731009E-004	0
6.039194872999695E+003	9.3704080E-003	-6.7915383E-004	0
6.049194872878623E+003	9.3322312E-003	-6.9048826E-004	0
6.059194872757551E+003	9.3513196E-003	-6.8271969E-004	0
6.069194872636479E+003	9.4085848E-003	-6.8125507E-004	0
6.079194872515407E+003	9.3894964E-003	-6.7953585E-004	0
6.089194872394335E+003	9.4085848E-003	-6.4731570E-004	0
6.099194872273263E+003	9.3513196E-003	-6.7062117E-004	0
6.109194872152191E+003	9.4467606E-003	-6.5533892E-004	0
6.119194872031119E+003	9.3322312E-003	-6.7558797E-004	0
6.129194871910047E+003	9.4085848E-003	-6.7762559E-004	0
6.139194871788975E+003	9.3513196E-003	-6.7036645E-004	0
6.149194871667904E+003	9.2558777E-003	-6.4107543E-004	0
6.159194871546832E+003	9.3131429E-003	-6.5253716E-004	0
6.169194871425760E+003	9.2940545E-003	-6.4699730E-004	0
6.179194871304688E+003	9.3131429E-003	-6.7323196E-004	0
6.189194871183616E+003	9.3894964E-003	-6.4979907E-004	0
6.199194871062544E+003	9.2367893E-003	-6.4973533E-004	0
6.209194870941472E+003	9.3894964E-003	-6.3999288E-004	0
6.219194870820400E+003	9.3131429E-003	-6.2713027E-004	0
6.229194870699328E+003	9.3704080E-003	-6.6489039E-004	0
6.239194870578256E+003	9.3513196E-003	-6.5591204E-004	0
6.249194870457184E+003	9.3513196E-003	-6.3948351E-004	0
6.259194870336112E+003	9.2940545E-003	-6.1726052E-004	0
6.269194870215040E+003	9.3704080E-003	-6.4858916E-004	0
6.279194870093968E+003	9.3513196E-003	-6.5699447E-004	0
6.289194869972896E+003	9.3131429E-003	-6.5890478E-004	0
6.299194869851824E+003	9.2940545E-003	-6.2114478E-004	0
6.309194869730753E+003	9.2367893E-003	-6.3407101E-004	0
6.319194869609681E+003	9.4085848E-003	-6.2751235E-004	0
6.329194869488609E+003	9.3322312E-003	-6.4139382E-004	0
6.339194869367537E+003	9.3513196E-003	-6.4190320E-004	0
6.349194869246465E+003	9.3894964E-003	-6.4725202E-004	0
6.359194869125393E+003	9.4467606E-003	-6.4731570E-004	0
6.369194869004321E+003	9.4085848E-003	-6.2948628E-004	0
6.379194868883249E+003	9.3513196E-003	-6.5979623E-004	0
6.389194868762177E+003	9.3894964E-003	-6.3598133E-004	0
6.399194868641105E+003	9.4276723E-003	-6.4222160E-004	0
6.409194868520033E+003	9.3704080E-003	-5.9853966E-004	0
6.419194868398961E+003	9.3704080E-003	-6.2655722E-004	0
6.429194868277889E+003	9.4467606E-003	-6.2604778E-004	0
6.439194868156817E+003	9.3513196E-003	-6.4018398E-004	0
6.449194868035745E+003	9.3704080E-003	-6.4298569E-004	0
6.459194867914674E+003	9.3513196E-003	-6.3082355E-004	0
6.469194867793602E+003	9.4276723E-003	-6.4043869E-004	0
6.479194867672530E+003	9.3704080E-003	-6.0885522E-004	0
6.489194867551458E+003	9.3513196E-003	-6.2209991E-004	0
6.499194867430386E+003	9.4085848E-003	-6.0732698E-004	0
6.509194867309314E+003	9.4276723E-003	-6.2222721E-004	0
6.519194867188242E+003	9.3513196E-003	-6.0115039E-004	0
6.529194867067170E+003	9.3322312E-003	-5.9669308E-004	0
6.539194866946098E+003	9.3894964E-003	-6.1210268E-004	0
6.549194866825026E+003	9.4276723E-003	-6.1471347E-004	0
6.559194866703954E+003	9.4276723E-003	-5.9554691E-004	0
6.569194866582882E+003	9.4467606E-003	-5.8739632E-004	0
6.579194866461810E+003	9.4467606E-003	-6.2069902E-004	0
6.589194866340738E+003	9.2749661E-003	-6.1535020E-004	0
6.599194866219666E+003	9.3894964E-003	-5.9331825E-004	0
6.609194866098595E+003	9.3322312E-003	-5.9452810E-004	0
6.619194865977523E+003	9.4276723E-003	-6.0140510E-004	0
6.629194865856451E+003	9.3894964E-003	-5.9592898E-004	0
6.639194865735379E+003	9.3322312E-003	-5.8236590E-004	0
6.649194865614307E+003	9.4276723E-003	-6.0675392E-004	0
6.659194865493235E+003	9.3704080E-003	-6.2178151E-004	0
6.669194865372163E+003	9.4467606E-003	-6.3833734E-004	0
6.679194865251091E+003	9.3894964E-003	-5.8192015E-004	0
6.689194865130019E+003	9.3704080E-003	-5.9790292E-004	0
6.699194865008947E+003	9.3704080E-003	-5.7829061E-004	0
6.709194864887875E+003	9.4085848E-003	-5.9185363E-004	0
6.719194864766803E+003	9.2749661E-003	-6.0407951E-004	0
6.729194864645731E+003	9.4276723E-003	-6.0376117E-004	0
6.739194864524659E+003	9.3894964E-003	-5.8605912E-004	0
6.749194864403587E+003	9.4467606E-003	-5.9694774E-004	0
6.759194864282515E+003	9.3513196E-003	-6.0573511E-004	0
6.769194864161444E+003	9.3704080E-003	-6.0064095E-004	0
6.779194864040372E+003	9.3322312E-003	-5.7402428E-004	0
6.789194863919300E+003	9.3131429E-003	-5.8064668E-004	0
6.799194863798228E+003	9.4085848E-003	-6.0675392E-004	0
6.809194863677156E+003	9.4085848E-003	-5.5460306E-004	0
6.819194863556084E+003	9.3894964E-003	-5.6001550E-004	0
6.829194863435012E+003	9.4467606E-003	-5.8497663E-004	0
6.839194863313940E+003	9.2749661E-003	-5.9185363E-004	0
6.849194863192868E+003	9.4276723E-003	-5.7606195E-004	0
6.859194863071796E+003	9.2749661E-003	-5.8204756E-004	0
6.869194862950724E+003	9.3131429E-003	-5.4995465E-004	0
6.879194862829652E+003	9.3131429E-003	-5.7408796E-004	0
6.889194862708580E+003	9.2749661E-003	-5.7765387E-004	0
6.899194862587508E+003	9.2749661E-003	-5.7969149E-004	0
6.909194862466436E+003	9.3704080E-003	-5.8586808E-004	0
6.919194862345365E+003	9.4849374E-003	-5.7306915E-004	0
6.929194862224293E+003	9.4276723E-003	-5.7663507E-004	0
6.939194862103221E+003	9.4658490E-003	-5.8605912E-004	0
6.949194861982149E+003	9.4276723E-003	-5.7402428E-004	0
6.959194861861077E+003	9.3322312E-003	-5.3352618E-004	0
6.969194861740005E+003	9.3513196E-003	-5.6389975E-004	0
6.979194861618933E+003	9.3513196E-003	-5.8153813E-004	0
6.989194861497861E+003	9.3513196E-003	-5.8427622E-004	0
6.999194861376789E+003	9.2367893E-003	-5.9147162E-004	0
7.009194861255717E+003	9.2940545E-003	-5.7892740E-004	0
7.019194861134645E+003	9.2940545E-003	-5.3123385E-004	0
7.029194861013573E+003	9.2749661E-003	-5.2429311E-004	0
7.039194860892501E+003	9.3513196E-003	-5.4282293E-004	0
7.049194860771429E+003	9.3131429E-003	-5.4836279E-004	0
7.059194860650357E+003	9.2558777E-003	-5.6434551E-004	0
7.069194860529286E+003	9.2367893E-003	-5.3409929E-004	0
7.079194860408214E+003	9.4085848E-003	-5.4600672E-004	0
7.089194860287142E+003	9.2940545E-003	-5.8548601E-004	0
7.099194860166070E+003	9.4658490E-003	-5.4333231E-004	0
7.109194860044998E+003	9.3894964E-003	-5.4568838E-004	0
7.119194859923926E+003	9.2367893E-003	-5.7300547E-004	0
7.129194859802854E+003	9.3322312E-003	-5.4823537E-004	0
7.139194859681782E+003	9.3513196E-003	-5.2709487E-004	0
7.149194859560710E+003	9.4658490E-003	-5.5664068E-004	0
7.159194859439638E+003	9.2558777E-003	-5.3390826E-004	0
7.169194859318566E+003	9.3322312E-003	-5.8083772E-004	0
7.179194859197494E+003	9.3513196E-003	-5.6148006E-004	0
7.189194859076422E+003	9.4276723E-003	-5.6122534E-004	0
7.199194858955350E+003	9.4085848E-003	-5.5473042E-004	0
7.209194858834278E+003	9.3322312E-003	-5.5460306E-004	0
7.219194858713206E+003	9.3894964E-003	-5.4600672E-004	0
7.229194858592135E+003	9.2940545E-003	-5.4785336E-004	0
7.239194858471063E+003	9.2558777E-003	-5.2085466E-004	0
7.249194858349991E+003	9.3894964E-003	-5.5861461E-004	0
7.259194858228919E+003	9.4658490E-003	-5.3537282E-004	0
7.269194858107847E+003	9.2367893E-003	-5.2499352E-004	0
7.279194857986775E+003	9.2367893E-003	-5.4282293E-004	0
7.289194857865703E+003	9.4085848E-003	-5.5371161E-004	0
7.299194857744631E+003	9.3322312E-003	-5.4868113E-004	0
7.309194857623559E+003	9.3894964E-003	-5.4963626E-004	0
7.319194857502487E+003	9.3894964E-003	-5.2709487E-004	0
7.329194857381415E+003	9.3704080E-003	-4.9385586E-004	0
7.339194857260343E+003	9.2940545E-003	-5.5428466E-004	0
7.349194857139271E+003	9.4085848E-003	-5.1620626E-004	0
7.359194857018199E+003	9.2940545E-003	-5.6472758E-004	0
7.369194856897127E+003	9.3894964E-003	-5.5562187E-004	0
7.379194856776056E+003	9.3322312E-003	-5.2976928E-004	0
7.389194856654984E+003	9.3704080E-003	-5.0289789E-004	0
7.399194856533912E+003	9.1986125E-003	-5.6867552E-004	0
7.409194856412840E+003	9.3513196E-003	-5.1149417E-004	0
7.419194856291768E+003	9.4085848E-003	-5.2563031E-004	0
7.429194856170696E+003	9.3322312E-003	-5.4033956E-004	0
7.439194856049624E+003	9.3513196E-003	-5.2244653E-004	0
7.449194855928552E+003	9.2558777E-003	-5.4110371E-004	0
7.459194855807480E+003	9.3513196E-003	-5.1556947E-004	0
7.469194855686408E+003	9.2749661E-003	-5.1550579E-004	0
7.479194855565336E+003	9.3322312E-003	-5.3836557E-004	0
7.489194855444264E+003	9.4276723E-003	-5.3976645E-004	0
7.499194855323192E+003	9.3704080E-003	-5.3995749E-004	0
7.509194855202120E+003	9.3513196E-003	-4.9863156E-004	0
7.519194855081048E+003	9.3704080E-003	-5.3416291E-004	0
7.529194854959977E+003	9.4085848E-003	-5.2938721E-004	0
7.539194854838905E+003	9.3322312E-003	-5.1276770E-004	0
7.549194854717833E+003	9.3513196E-003	-4.8003811E-004	0
7.559194854596761E+003	9.3894964E-003	-4.9341016E-004	0
7.569194854475689E+003	9.4085848E-003	-5.1760714E-004	0
7.579194854354617E+003	9.3704080E-003	-5.2206445E-004	0
7.589194854233545E+003	9.3894964E-003	-5.3651899E-004	0
7.599194854112473E+003	9.4085848E-003	-4.8315825E-004	0
7.609194853991401E+003	9.4467606E-003	-5.0646375E-004	0
7.619194853870329E+003	9.3513196E-003	-5.3709204E-004	0
7.629194853749257E+003	9.2749661E-003	-5.1518745E-004	0
7.639194853628185E+003	9.4276723E-003	-5.0194270E-004	0
7.649194853507113E+003	9.3322312E-003	-5.0735526E-004	0
7.659194853386041E+003	9.3704080E-003	-5.0366198E-004	0
7.669194853264969E+003	9.4085848E-003	-5.2110932E-004	0
7.679194853143897E+003	9.2940545E-003	-4.9996877E-004	0
7.689194853022826E+003	9.3322312E-003	-4.9283705E-004	0
7.699194852901754E+003	9.3704080E-003	-5.3129753E-004	0
7.709194852780682E+003	9.2558777E-003	-4.8793392E-004	0
7.719194852659610E+003	9.3131429E-003	-4.9073575E-004	0
7.729194852538538E+003	9.3704080E-003	-4.8194840E-004	0
7.739194852417466E+003	9.3322312E-003	-5.0143333E-004	0
7.749194852296394E+003	9.3704080E-003	-5.1467802E-004	0
7.759194852175322E+003	9.4467606E-003	-5.0550862E-004	0
7.769194852054250E+003	9.3131429E-003	-4.9436529E-004	0
7.779194851933178E+003	9.2558777E-003	-4.9901364E-004	0
7.789194851812106E+003	9.4467606E-003	-4.9067201E-004	0
7.799194851691034E+003	9.3322312E-003	-5.1104842E-004	0
7.809194851569962E+003	9.3894964E-003	-5.0219748E-004	0
7.819194851448890E+003	9.3704080E-003	-4.9372850E-004	0
7.829194851327818E+003	9.3513196E-003	-4.8443177E-004	0
7.839194851206747E+003	9.3322312E-003	-4.9442897E-004	0
7.849194851085675E+003	9.3322312E-003	-4.8468643E-004	0
7.859194850964603E+003	9.3513196E-003	-4.9029000E-004	0
7.869194850843531E+003	9.5231142E-003	-4.7647220E-004	0
7.879194850722459E+003	9.3704080E-003	-5.0060550E-004	0
7.889194850601387E+003	9.2940545E-003	-4.9761281E-004	0
7.899194850480315E+003	9.3513196E-003	-4.8354029E-004	0
7.909194850359243E+003	9.3704080E-003	-4.9805845E-004	0
7.919194850238171E+003	9.3894964E-003	-4.9793109E-004	0
7.929194850117099E+003	9.2749661E-003	-4.4864565E-004	0
7.939194849996027E+003	9.3894964E-003	-4.8449545E-004	0
7.949194849874955E+003	9.3704080E-003	-5.0767360E-004	0
7.959194849753883E+003	9.2940545E-003	-5.0474453E-004	0
7.969194849632811E+003	9.2749661E-003	-4.8901647E-004	0
7.979194849511739E+003	9.3513196E-003	-4.6469207E-004	0
7.989194849390668E+003	9.3131429E-003	-4.9366482E-004	0
7.999194849269596E+003	9.3513196E-003	-4.7647220E-004	0
8.009194849148524E+003	9.4085848E-003	-4.5736934E-004	0
8.019194849027452E+003	9.4085848E-003	-4.9372850E-004	0
8.029194848906380E+003	9.3513196E-003	-4.7672691E-004	0
8.039194848785308E+003	9.4276723E-003	-4.7303367E-004	0
8.049194848664236E+003	9.3513196E-003	-5.0404406E-004	0
8.059194848543164E+003	9.2940545E-003	-5.0219748E-004	0
8.069194848422092E+003	9.4085848E-003	-4.7991073E-004	0
8.079194848301020E+003	9.3513196E-003	-4.6602931E-004	0
8.089194848179948E+003	9.1986125E-003	-4.8182104E-004	0
8.099194848058876E+003	9.3704080E-003	-4.8054749E-004	0
8.109194847937804E+003	9.4085848E-003	-4.7507134E-004	0
8.119194847816732E+003	9.3322312E-003	-4.9086305E-004	0
8.129194847695660E+003	9.3131429E-003	-4.7417986E-004	0
8.139194847574588E+003	9.3131429E-003	-4.6061681E-004	0
8.149194847453517E+003	9.2940545E-003	-4.9430161E-004	0
8.159194847332445E+003	9.3704080E-003	-4.7952868E-004	0
8.169194847211373E+003	9.3513196E-003	-5.0684583E-004	0
8.179194847090301E+003	9.3704080E-003	-4.6596563E-004	0
8.189194846969229E+003	9.4467606E-003	-4.6545619E-004	0
8.199194846848142E+003	9.3704080E-003	-5.0385302E-004	0
8.209194846727070E+003	9.3131429E-003	-4.6851268E-004	0
8.219194846605998E+003	9.4276723E-003	-4.8710615E-004	0
8.229194846484927E+003	9.4085848E-003	-4.8334926E-004	0
8.239194846363855E+003	9.3513196E-003	-4.6017111E-004	0
8.249194846242783E+003	9.4467606E-003	-4.5182949E-004	0
8.259194846121711E+003	9.3322312E-003	-4.5800611E-004	0
8.269194846000639E+003	9.3894964E-003	-4.6692078E-004	0
8.279194845879567E+003	9.2940545E-003	-4.6163562E-004	0
8.289194845758495E+003	9.4276723E-003	-4.8583260E-004	0
8.299194845637423E+003	9.2558777E-003	-4.5017389E-004	0
8.309194845516351E+003	9.4467606E-003	-4.5501333E-004	0
8.319194845395279E+003	9.3704080E-003	-4.6386430E-004	0
8.329194845274207E+003	9.3704080E-003	-4.7978337E-004	0
8.339194845153135E+003	9.4085848E-003	-4.5202053E-004	0
8.349194845032063E+003	9.3704080E-003	-4.8067485E-004	0
8.359194844910991E+003	9.3322312E-003	-4.8328561E-004	0
8.369194844789919E+003	9.1795251E-003	-4.8806131E-004	0
8.379194844668848E+003	9.4085848E-003	-4.7265162E-004	0
8.389194844547776E+003	9.4276723E-003	-4.5297566E-004	0
8.399194844426704E+003	9.3322312E-003	-4.5463126E-004	0
8.409194844305632E+003	9.3513196E-003	-4.5061964E-004	0
8.419194844184560E+003	9.3322312E-003	-4.7424351E-004	0
8.429194844063488E+003	9.4467606E-003	-4.5724199E-004	0
8.439194843942416E+003	9.3322312E-003	-4.7730000E-004	0
8.449194843821344E+003	9.3894964E-003	-4.7583546E-004	0
8.459194843700272E+003	9.3513196E-003	-4.6615666E-004	0
8.469194843579200E+003	9.3894964E-003	-4.3279029E-004	0
8.479194843458128E+003	9.3322312E-003	-4.6029841E-004	0
8.489194843337056E+003	9.4085848E-003	-4.4399733E-004	0
8.492166443301074E+003	9.3704080E-003	-3.7987533E-004	0
8.492166643301083E+003	9.4849374E-003	-3.8325015E-004	0