time/s	Ewe/V	I/mA	error	
4.073205897102016E+002	-7.2065629E-003	-9.7337747E-001	0
4.073207897101966E+002	-1.9717252E-002	-9.7994524E-001	0
4.073209897101915E+002	-2.2468507E-002	-9.7997063E-001	0
4.073211897101864E+002	-2.4206027E-002	-9.7990084E-001	0
4.073213897101814E+002	-2.5485301E-002	-9.7987533E-001	0
4.073215897101763E+002	-2.6783668E-002	-9.7995800E-001	0
4.073217897101713E+002	-2.7852912E-002	-9.7995162E-001	0
4.073219897101662E+002	-2.9074904E-002	-9.7993255E-001	0
4.073221897101612E+002	-3.0105960E-002	-9.7995162E-001	0
4.073225897101511E+002	-3.2168072E-002	-9.7993255E-001	0
4.073227897101460E+002	-3.3180036E-002	-9.7995800E-001	0
4.073231897101359E+002	-3.4936648E-002	-9.7990716E-001	0
4.073233897101309E+002	-3.5967704E-002	-9.7994524E-001	0
4.073235897101258E+002	-3.6998760E-002	-9.7996432E-001	0
4.073239897101157E+002	-3.8698092E-002	-9.7990084E-001	0
4.073243897101056E+002	-4.0511988E-002	-9.7995800E-001	0
4.073247897100955E+002	-4.2173136E-002	-9.7993892E-001	0
4.073251897100854E+002	-4.3948844E-002	-9.7996432E-001	0
4.073255897100753E+002	-4.5590896E-002	-9.7995800E-001	0
4.073259897100652E+002	-4.7271132E-002	-9.7991991E-001	0
4.073263897100551E+002	-4.9008656E-002	-9.7997063E-001	0
4.073267897100450E+002	-5.0478864E-002	-9.8001516E-001	0
4.073271897100349E+002	-5.2025449E-002	-9.7987533E-001	0
4.073275897100248E+002	-5.3648409E-002	-9.7990716E-001	0
4.073279897100147E+002	-5.5194993E-002	-9.7995800E-001	0
4.073283897100046E+002	-5.6722481E-002	-9.7993892E-001	0
4.073287897099945E+002	-5.8383629E-002	-9.7997063E-001	0
4.073291897099843E+002	-5.9815649E-002	-9.7994524E-001	0
4.073295897099742E+002	-6.1324049E-002	-9.7997063E-001	0
4.073299897099641E+002	-6.2832445E-002	-9.7997701E-001	0
4.073303897099540E+002	-6.4245373E-002	-9.7995162E-001	0
4.073307897099439E+002	-6.5639205E-002	-9.7994524E-001	0
4.073311897099338E+002	-6.7166694E-002	-9.7997063E-001	0
4.073315897099237E+002	-6.8407781E-002	-9.8000872E-001	0
4.073319897099136E+002	-6.9916181E-002	-9.7998339E-001	0
4.073323897099035E+002	-7.1405485E-002	-9.7991991E-001	0
4.073327897098934E+002	-7.2742037E-002	-9.7999609E-001	0
4.073331897098833E+002	-7.4116781E-002	-9.7991991E-001	0
4.073335897098732E+002	-7.5453334E-002	-9.7999609E-001	0
4.073339897098631E+002	-7.6808982E-002	-9.7997063E-001	0
4.073343897098530E+002	-7.8069158E-002	-9.7997063E-001	0
4.073347897098429E+002	-7.9348430E-002	-9.7995800E-001	0
4.073351897098328E+002	-8.0761366E-002	-9.7993255E-001	0
4.073355897098227E+002	-8.2078822E-002	-9.7995800E-001	0
4.073359897098126E+002	-8.3396286E-002	-9.7997063E-001	0
4.073363897098025E+002	-8.4580086E-002	-9.7997063E-001	0
4.073367897097924E+002	-8.6031206E-002	-9.7995800E-001	0
4.073371897097823E+002	-8.7176822E-002	-9.7998339E-001	0
4.073375897097721E+002	-8.8436998E-002	-9.7995162E-001	0
4.073379897097620E+002	-8.9658998E-002	-9.7996432E-001	0
4.073383897097519E+002	-9.0976454E-002	-9.8000240E-001	0
4.073387897097418E+002	-9.2389382E-002	-9.7995800E-001	0
4.073391897097317E+002	-9.3420438E-002	-9.7994524E-001	0
4.073395897097216E+002	-9.4680622E-002	-9.7997063E-001	0
4.073399897097115E+002	-9.5788047E-002	-9.7993255E-001	0
4.073403897097014E+002	-9.7086415E-002	-9.7997701E-001	0
4.073407897096913E+002	-9.8232038E-002	-9.7993892E-001	0
4.073411897096812E+002	-9.9530399E-002	-9.7991991E-001	0
4.073415897096711E+002	-1.0073330E-001	-9.7997701E-001	0
4.073419897096610E+002	-1.0174526E-001	-9.7993255E-001	0
4.073423897096509E+002	-1.0283360E-001	-9.7990716E-001	0
4.073427897096408E+002	-1.0403650E-001	-9.7994524E-001	0
4.073431897096307E+002	-1.0510574E-001	-9.7993255E-001	0
4.073435897096206E+002	-1.0615589E-001	-9.8002148E-001	0
4.073439897096105E+002	-1.0732061E-001	-9.7990084E-001	0
4.073443897096004E+002	-1.0858078E-001	-9.7993255E-001	0
4.073449897095852E+002	-1.1022284E-001	-9.7998339E-001	0
4.073455897095700E+002	-1.1173123E-001	-9.7995800E-001	0
4.073459897095599E+002	-1.1293413E-001	-9.7996432E-001	0
4.073463897095498E+002	-1.1394610E-001	-9.7986269E-001	0
4.073467897095397E+002	-1.1505353E-001	-9.7998971E-001	0
4.073471897095296E+002	-1.1606549E-001	-9.7993255E-001	0
4.073475897095195E+002	-1.1719201E-001	-9.7998339E-001	0
4.073479897095094E+002	-1.1820398E-001	-9.7999609E-001	0
4.073483897094993E+002	-1.1927322E-001	-9.7999609E-001	0
4.073489897094842E+002	-1.2070524E-001	-9.7998339E-001	0
4.073493897094741E+002	-1.2173630E-001	-9.7997063E-001	0
4.073499897094589E+002	-1.2320650E-001	-9.7987533E-001	0
4.073505897094437E+002	-1.2471490E-001	-9.7996432E-001	0
4.073509897094336E+002	-1.2574595E-001	-9.7993892E-001	0
4.073515897094185E+002	-1.2717798E-001	-9.7997701E-001	0
4.073521897094033E+002	-1.2853363E-001	-9.7997701E-001	0
4.073527897093882E+002	-1.2996565E-001	-9.7991991E-001	0
4.073531897093781E+002	-1.3101579E-001	-9.7999609E-001	0
4.073537897093629E+002	-1.3235235E-001	-9.7993892E-001	0
4.073543897093477E+002	-1.3380347E-001	-9.7996432E-001	0
4.073549897093326E+002	-1.3515912E-001	-9.7995800E-001	0
4.073555897093174E+002	-1.3647658E-001	-9.7994524E-001	0
4.073561897093023E+002	-1.3800406E-001	-9.7998339E-001	0
4.073567897092871E+002	-1.3924515E-001	-9.8001516E-001	0
4.073573897092720E+002	-1.4073445E-001	-9.7998971E-001	0
4.073579897092568E+002	-1.4182279E-001	-9.7999609E-001	0
4.073585897092416E+002	-1.4315934E-001	-9.7992623E-001	0
4.073591897092265E+002	-1.4449590E-001	-9.8000240E-001	0
4.073597897092113E+002	-1.4573699E-001	-9.7996432E-001	0
4.073603897091962E+002	-1.4705445E-001	-9.7993892E-001	0
4.073609897091810E+002	-1.4833371E-001	-9.7990084E-001	0
4.073615897091659E+002	-1.4940296E-001	-9.7996432E-001	0
4.073621897091507E+002	-1.5070133E-001	-9.7995162E-001	0
4.073627897091355E+002	-1.5194242E-001	-9.7994524E-001	0
4.073633897091204E+002	-1.5316442E-001	-9.7997701E-001	0
4.073639897091052E+002	-1.5423365E-001	-9.7995162E-001	0
4.073645897090901E+002	-1.5557021E-001	-9.7997701E-001	0
4.073651897090749E+002	-1.5663946E-001	-9.7990716E-001	0
4.073657897090598E+002	-1.5767051E-001	-9.8003423E-001	0
4.073663897090446E+002	-1.5885431E-001	-9.7999609E-001	0
4.073669897090294E+002	-1.5994264E-001	-9.7996432E-001	0
4.073675897090143E+002	-1.6116464E-001	-9.7998971E-001	0
4.073683897089941E+002	-1.6252029E-001	-9.7999609E-001	0
4.073689897089789E+002	-1.6368499E-001	-9.7997701E-001	0
4.073695897089638E+002	-1.6473515E-001	-9.7993255E-001	0
4.073703897089435E+002	-1.6605261E-001	-9.7997701E-001	0
4.073709897089284E+002	-1.6714095E-001	-9.8004055E-001	0
4.073715897089132E+002	-1.6834384E-001	-9.7995800E-001	0
4.073723897088930E+002	-1.6958493E-001	-9.7995800E-001	0
4.073731897088728E+002	-1.7103605E-001	-9.7998339E-001	0
4.073739897088526E+002	-1.7218167E-001	-9.7991347E-001	0
4.073745897088374E+002	-1.7325091E-001	-9.7998339E-001	0
4.073751897088223E+002	-1.7433925E-001	-9.7998339E-001	0
4.073759897088021E+002	-1.7556123E-001	-9.7993255E-001	0
4.073767897087819E+002	-1.7674504E-001	-9.7992623E-001	0
4.073775897087617E+002	-1.7798613E-001	-9.7993255E-001	0
4.073783897087415E+002	-1.7934178E-001	-9.7993892E-001	0
4.073791897087212E+002	-1.8056378E-001	-9.7996432E-001	0
4.073799897087010E+002	-1.8170939E-001	-9.7995800E-001	0
4.073807897086808E+002	-1.8289319E-001	-9.7998339E-001	0
4.073815897086606E+002	-1.8398154E-001	-9.7996432E-001	0
4.073823897086404E+002	-1.8531808E-001	-9.7997063E-001	0
4.073831897086202E+002	-1.8646370E-001	-9.7996432E-001	0
4.073839897086000E+002	-1.8759023E-001	-9.7994524E-001	0
4.073849897085747E+002	-1.8890768E-001	-9.7997701E-001	0
4.073857897085545E+002	-1.8999602E-001	-9.7997063E-001	0
4.073865897085343E+002	-1.9117983E-001	-9.7993255E-001	0
4.073873897085141E+002	-1.9221088E-001	-9.7996432E-001	0
4.073881897084939E+002	-1.9339469E-001	-9.7997701E-001	0
4.073889897084737E+002	-1.9442575E-001	-9.8002785E-001	0
4.073899897084484E+002	-1.9555227E-001	-9.7991347E-001	0
4.073907897084282E+002	-1.9667880E-001	-9.7997063E-001	0
4.073915897084080E+002	-1.9772895E-001	-9.7998339E-001	0
4.073925897083827E+002	-1.9883637E-001	-9.7992623E-001	0
4.073933897083625E+002	-1.9984834E-001	-9.8001516E-001	0
4.073943897083373E+002	-2.0105124E-001	-9.7993892E-001	0
4.073953897083120E+002	-2.0217776E-001	-9.8000240E-001	0
4.073961897082918E+002	-2.0318973E-001	-9.7992623E-001	0
4.073971897082665E+002	-2.0443080E-001	-9.7997063E-001	0
4.073981897082413E+002	-2.0546186E-001	-9.7998339E-001	0
4.073989897082211E+002	-2.0653111E-001	-9.7995162E-001	0
4.074001897081907E+002	-2.0781039E-001	-9.7992623E-001	0
4.074011897081655E+002	-2.0882234E-001	-9.7993255E-001	0
4.074021897081402E+002	-2.0992978E-001	-9.7993892E-001	0
4.074031897081150E+002	-2.1101812E-001	-9.7997701E-001	0
4.074043897080846E+002	-2.1233557E-001	-9.7993255E-001	0
4.074055897080543E+002	-2.1342391E-001	-9.7997063E-001	0
4.074067897080240E+002	-2.1468408E-001	-9.7998971E-001	0
4.074077897079987E+002	-2.1579152E-001	-9.7992623E-001	0
4.074089897079684E+002	-2.1680349E-001	-9.7995800E-001	0
4.074101897079381E+002	-2.1804456E-001	-9.7991991E-001	0
4.074113897079078E+002	-2.1909472E-001	-9.7994524E-001	0
4.074123897078825E+002	-2.2018306E-001	-9.7991991E-001	0
4.074137897078472E+002	-2.2129048E-001	-9.7997701E-001	0
4.074149897078169E+002	-2.2235973E-001	-9.7995800E-001	0
4.074161897077865E+002	-2.2356263E-001	-9.7995162E-001	0
4.074173897077562E+002	-2.2461277E-001	-9.7993255E-001	0
4.074187897077209E+002	-2.2579658E-001	-9.7992623E-001	0
4.074201897076855E+002	-2.2686583E-001	-9.8000240E-001	0
4.074213897076552E+002	-2.2791597E-001	-9.7997701E-001	0
4.074227897076198E+002	-2.2902341E-001	-9.8002785E-001	0
4.074241897075844E+002	-2.3013084E-001	-9.7992623E-001	0
4.074255897075491E+002	-2.3125736E-001	-9.7995800E-001	0
4.074271897075087E+002	-2.3242207E-001	-9.7995162E-001	0
4.074285897074733E+002	-2.3347223E-001	-9.7991347E-001	0
4.074297897074430E+002	-2.3454146E-001	-9.7994524E-001	0
4.074313897074026E+002	-2.3561071E-001	-9.7994524E-001	0
4.074331897073571E+002	-2.3673724E-001	-9.7991991E-001	0
4.074347897073167E+002	-2.3790194E-001	-9.7996432E-001	0
4.074361897072813E+002	-2.3897119E-001	-9.7997063E-001	0
4.074377897072409E+002	-2.3998316E-001	-9.8000240E-001	0
4.074393897072005E+002	-2.4101421E-001	-9.7995800E-001	0
4.074409897071600E+002	-2.4206436E-001	-9.8001516E-001	0
4.074425897071196E+002	-2.4311450E-001	-9.7999609E-001	0
4.074445897070691E+002	-2.4424103E-001	-9.7998339E-001	0
4.074463897070236E+002	-2.4529119E-001	-9.7991991E-001	0
4.074479897069832E+002	-2.4632224E-001	-9.7993892E-001	0
4.074499897069327E+002	-2.4748695E-001	-9.7998971E-001	0
4.074519897068822E+002	-2.4851801E-001	-9.7995800E-001	0
4.074537897068367E+002	-2.4962543E-001	-9.7997701E-001	0
4.074557897067862E+002	-2.5071377E-001	-9.7998339E-001	0
4.074581897067255E+002	-2.5185940E-001	-9.7993892E-001	0
4.074603897066700E+002	-2.5294772E-001	-9.7997701E-001	0
4.074627897066093E+002	-2.5416970E-001	-9.7993255E-001	0
4.074647897065588E+002	-2.5520077E-001	-9.7999609E-001	0
4.074671897064982E+002	-2.5627002E-001	-9.8000872E-001	0
4.074695897064375E+002	-2.5741562E-001	-9.7994524E-001	0
4.074719897063769E+002	-2.5846577E-001	-9.7995800E-001	0
4.074745897063112E+002	-2.5951594E-001	-9.8000872E-001	0
4.074769897062506E+002	-2.6064247E-001	-9.7997063E-001	0
4.074797897061799E+002	-2.6176897E-001	-9.7997063E-001	0
4.074825897061091E+002	-2.6278093E-001	-9.7993892E-001	0
4.074853897060384E+002	-2.6383108E-001	-9.8000240E-001	0
4.074883897059626E+002	-2.6484305E-001	-9.7989446E-001	0
4.074909897058969E+002	-2.6596957E-001	-9.7999609E-001	0
4.074939897058212E+002	-2.6698154E-001	-9.7998339E-001	0
4.074975897057302E+002	-2.6808897E-001	-9.7991991E-001	0
4.075011897056393E+002	-2.6919639E-001	-9.7995162E-001	0
4.075045897055534E+002	-2.7020836E-001	-9.7998971E-001	0
4.075087897054473E+002	-2.7123943E-001	-9.7997063E-001	0
4.075125897053513E+002	-2.7227047E-001	-9.7994524E-001	0
4.075169897052401E+002	-2.7333972E-001	-9.7995162E-001	0
4.075217897051189E+002	-2.7435169E-001	-9.8005962E-001	0
4.075271897049824E+002	-2.7545911E-001	-9.7996432E-001	0
4.075331897048309E+002	-2.7652836E-001	-9.8002785E-001	0
4.075403897046490E+002	-2.7754033E-001	-9.8001516E-001	0
4.075473897044722E+002	-2.7855229E-001	-9.7998971E-001	0
4.075565897042397E+002	-2.7956423E-001	-9.7997063E-001	0
4.075677897039568E+002	-2.8063348E-001	-9.8004055E-001	0
4.075827897035779E+002	-2.8166455E-001	-9.7998971E-001	0
4.076087897029211E+002	-2.8271469E-001	-9.7995162E-001	0
4.081717896886985E+002	-2.8374574E-001	-9.7998971E-001	0
4.082863896858034E+002	-2.8475770E-001	-9.7995800E-001	0
4.083991896829539E+002	-2.8578877E-001	-9.8000240E-001	0
4.085171896799729E+002	-2.8680074E-001	-9.7993255E-001	0
4.086421896768152E+002	-2.8781268E-001	-9.7998971E-001	0
4.087825896732684E+002	-2.8882465E-001	-9.7996432E-001	0
4.089309896695195E+002	-2.8987479E-001	-9.7999609E-001	0
4.090933896654169E+002	-2.9088676E-001	-9.7988814E-001	0
4.092623896611476E+002	-2.9189873E-001	-9.7999609E-001	0
4.094439896565600E+002	-2.9291070E-001	-9.7994524E-001	0
4.096399896516086E+002	-2.9397994E-001	-9.7996432E-001	0
4.098567896461318E+002	-2.9499191E-001	-9.7997701E-001	0
4.100661896408419E+002	-2.9600385E-001	-9.7995800E-001	0
4.102899896351882E+002	-2.9705402E-001	-9.8001516E-001	0
4.105541896285140E+002	-2.9808506E-001	-9.7993892E-001	0
4.107963896223955E+002	-2.9911613E-001	-9.7998971E-001	0
4.110663896155747E+002	-3.0012807E-001	-9.7998339E-001	0
4.113461896085064E+002	-3.0115914E-001	-9.8000240E-001	0
4.116269896014128E+002	-3.0217111E-001	-9.7996432E-001	0
4.119241895939049E+002	-3.0318308E-001	-9.7997063E-001	0
4.122271895862505E+002	-3.0419502E-001	-9.7995162E-001	0
4.125261895786971E+002	-3.0520698E-001	-9.7996432E-001	0
4.128889895695320E+002	-3.0627623E-001	-9.7997063E-001	0
4.132325895608519E+002	-3.0728820E-001	-9.7993255E-001	0
4.135839895519748E+002	-3.0831924E-001	-9.7988814E-001	0
4.139309895432089E+002	-3.0933121E-001	-9.7994524E-001	0
4.143019895338366E+002	-3.1036228E-001	-9.7993255E-001	0
4.146733895244543E+002	-3.1137425E-001	-9.7995162E-001	0
4.150459895150416E+002	-3.1238618E-001	-9.7997701E-001	0
4.154557895046892E+002	-3.1343636E-001	-9.7991991E-001	0
4.158635894943873E+002	-3.1446740E-001	-9.8000872E-001	0
4.162833894837822E+002	-3.1547937E-001	-9.7994524E-001	0
4.166909894734854E+002	-3.1652951E-001	-9.7991347E-001	0
4.171353894622589E+002	-3.1754148E-001	-9.7994524E-001	0
4.175879894508253E+002	-3.1855345E-001	-9.7999609E-001	0
4.180355894395179E+002	-3.1956542E-001	-9.7995162E-001	0
4.184831894282106E+002	-3.2059646E-001	-9.7998971E-001	0
4.189891894154280E+002	-3.2164660E-001	-9.8001516E-001	0
4.194925894027110E+002	-3.2265857E-001	-9.8006594E-001	0
4.199915893901052E+002	-3.2368964E-001	-9.8002148E-001	0
4.205419893762009E+002	-3.2470158E-001	-9.7995800E-001	0
4.210881893624028E+002	-3.2571355E-001	-9.7997063E-001	0
4.216485893482459E+002	-3.2676369E-001	-9.7998339E-001	0
4.222797893323004E+002	-3.2779476E-001	-9.8003423E-001	0
4.228941893167794E+002	-3.2884490E-001	-9.8004055E-001	0
4.235481893002579E+002	-3.2987598E-001	-9.8005331E-001	0
4.241603892847925E+002	-3.3098340E-001	-9.7997701E-001	0
4.249301892653457E+002	-3.3203354E-001	-9.7995800E-001	0
4.256619892468589E+002	-3.3304551E-001	-9.7998339E-001	0
4.264329892273818E+002	-3.3405748E-001	-9.7997063E-001	0
4.272215892074601E+002	-3.3506942E-001	-9.7999609E-001	0
4.281171891848353E+002	-3.3608139E-001	-9.7996432E-001	0
4.290207891620084E+002	-3.3709335E-001	-9.7997063E-001	0
4.306327891212859E+002	-3.3814350E-001	-9.7997063E-001	0
4.316229890962713E+002	-3.3919364E-001	-9.7993892E-001	0
4.326679890698724E+002	-3.4022471E-001	-9.8004687E-001	0
4.350663890092837E+002	-3.4123668E-001	-9.7995162E-001	0
4.366367889696121E+002	-3.4230593E-001	-9.7992623E-001	0
4.395087888970593E+002	-3.4333697E-001	-9.7998339E-001	0
4.445087887707487E+002	-3.4341335E-001	-9.7997701E-001	0
4.487101886646124E+002	-3.4238228E-001	-9.8003423E-001	0
4.515951885917311E+002	-3.4137031E-001	-9.8002785E-001	0
4.538175885355886E+002	-3.4035838E-001	-9.8002148E-001	0
4.558299884847511E+002	-3.3934641E-001	-9.7993255E-001	0
4.577485884362832E+002	-3.3833444E-001	-9.8000240E-001	0
4.596149883891339E+002	-3.3730340E-001	-9.8000872E-001	0
4.614263883433741E+002	-3.3627233E-001	-9.8005962E-001	0
4.631223883005296E+002	-3.3524129E-001	-9.8000240E-001	0
4.647841882585490E+002	-3.3421022E-001	-9.7996432E-001	0
4.664603882162046E+002	-3.3319825E-001	-9.7997063E-001	0
4.680339881764521E+002	-3.3216721E-001	-9.7997701E-001	0
4.696179881364369E+002	-3.3109796E-001	-9.7993892E-001	0
4.713105880936782E+002	-3.3006689E-001	-9.7994524E-001	0
4.728331880552141E+002	-3.2905495E-001	-9.7998339E-001	0
4.744767880136933E+002	-3.2804298E-001	-9.7998971E-001	0
4.760257879745623E+002	-3.2701191E-001	-9.7993255E-001	0
4.776447879336629E+002	-3.2599995E-001	-9.7997701E-001	0
4.792885878921370E+002	-3.2498801E-001	-9.7999609E-001	0
4.808839878518338E+002	-3.2397604E-001	-9.7991991E-001	0
4.825223878104443E+002	-3.2296407E-001	-9.7993255E-001	0
4.842929877657152E+002	-3.2193300E-001	-9.7998339E-001	0
4.860185877221229E+002	-3.2092106E-001	-9.7998339E-001	0
4.876117876818753E+002	-3.1990910E-001	-9.7996432E-001	0
4.892357876408496E+002	-3.1889713E-001	-9.7995162E-001	0
4.910713875944784E+002	-3.1786606E-001	-9.7999609E-001	0
4.928329875499767E+002	-3.1681591E-001	-9.7993255E-001	0
4.947117875025142E+002	-3.1580395E-001	-9.8008502E-001	0
4.964949874574668E+002	-3.1479201E-001	-9.8002785E-001	0
4.984051874092111E+002	-3.1378004E-001	-9.8001516E-001	0
5.005635873546853E+002	-3.1274897E-001	-9.7998339E-001	0
5.025591873042722E+002	-3.1171793E-001	-9.7998339E-001	0
5.045075872550515E+002	-3.1070596E-001	-9.7993892E-001	0
5.065233872041281E+002	-3.0969399E-001	-9.7998971E-001	0
5.086091871514363E+002	-3.0868202E-001	-9.7992623E-001	0
5.107679870969005E+002	-3.0767006E-001	-9.7994524E-001	0
5.128431870444765E+002	-3.0665812E-001	-9.8000872E-001	0
5.151597869859543E+002	-3.0562705E-001	-9.7997701E-001	0
5.174013869293267E+002	-3.0459601E-001	-9.7993255E-001	0
5.198323868679145E+002	-3.0358404E-001	-9.7991991E-001	0
5.220939868107816E+002	-3.0257207E-001	-9.7995800E-001	0
5.244959867501020E+002	-3.0156010E-001	-9.7998971E-001	0
5.270683866851177E+002	-3.0054814E-001	-9.7993255E-001	0
5.295163866232760E+002	-2.9953617E-001	-9.7997701E-001	0
5.321639865563920E+002	-2.9852423E-001	-9.8000240E-001	0
5.348069864896243E+002	-2.9747406E-001	-9.8003423E-001	0
5.376855864169047E+002	-2.9646212E-001	-9.7997701E-001	0
5.405025863457413E+002	-2.9545015E-001	-9.8004055E-001	0
5.434275862718496E+002	-2.9443818E-001	-9.8000240E-001	0
5.464035861966695E+002	-2.9342622E-001	-9.8005331E-001	0
5.492313861252333E+002	-2.9239517E-001	-9.8000872E-001	0
5.525181860422017E+002	-2.9138321E-001	-9.7999609E-001	0
5.556433859632525E+002	-2.9037124E-001	-9.8005962E-001	0
5.591095858756889E+002	-2.8934017E-001	-9.7996432E-001	0
5.624451857914246E+002	-2.8832823E-001	-9.7995162E-001	0
5.660671856999252E+002	-2.8731626E-001	-9.8002785E-001	0
5.696561856092594E+002	-2.8630430E-001	-9.7993892E-001	0
5.731097855220141E+002	-2.8529233E-001	-9.7999609E-001	0
5.764115854386037E+002	-2.8426129E-001	-9.7997701E-001	0
5.807511853289761E+002	-2.8323022E-001	-9.7996432E-001	0
5.852927852142457E+002	-2.8216097E-001	-9.7998339E-001	0
5.898921850980551E+002	-2.8112993E-001	-9.7995800E-001	0
5.943801849846786E+002	-2.8011796E-001	-9.8006594E-001	0
5.990547848665883E+002	-2.7910599E-001	-9.7998339E-001	0
6.036033847516810E+002	-2.7807495E-001	-9.7998971E-001	0
6.085307846272044E+002	-2.7706298E-001	-9.8005331E-001	0
6.133061845065677E+002	-2.7605101E-001	-9.7995162E-001	0
6.183061843802570E+002	-2.7522999E-001	-9.7993255E-001	0
6.226021842717309E+002	-2.7419892E-001	-9.8002785E-001	0
6.276021841454203E+002	-2.7356884E-001	-9.7999609E-001	0
6.310511840582913E+002	-2.7255687E-001	-9.8001516E-001	0
6.360511839319806E+002	-2.7169767E-001	-9.7997701E-001	0
6.402495838259201E+002	-2.7068570E-001	-9.8003423E-001	0
6.452495836996095E+002	-2.7007470E-001	-9.7997701E-001	0
6.495289835915028E+002	-2.6902455E-001	-9.7997063E-001	0
6.545289834651921E+002	-2.6856631E-001	-9.7997063E-001	0
6.588589833558071E+002	-2.6755434E-001	-9.7993892E-001	0
6.638589832294965E+002	-2.6700065E-001	-9.8002148E-001	0
6.686095831094863E+002	-2.6598868E-001	-9.8002148E-001	0
6.736095829831756E+002	-2.6549223E-001	-9.8000240E-001	0
6.785929828572844E+002	-2.6448026E-001	-9.8003423E-001	0
6.835929827309737E+002	-2.6398385E-001	-9.7997701E-001	0
6.885125826066942E+002	-2.6295277E-001	-9.7989446E-001	0
6.935125824803836E+002	-2.6249453E-001	-9.8004055E-001	0
6.985125823540729E+002	-2.6173079E-001	-9.8005331E-001	0
7.035125822277623E+002	-2.6098615E-001	-9.8005962E-001	0
7.085125821014517E+002	-2.6024148E-001	-9.7997063E-001	0
7.135125819751411E+002	-2.5966868E-001	-9.8001516E-001	0
7.185125818488305E+002	-2.5901949E-001	-9.8000872E-001	0
7.235125817225198E+002	-2.5846577E-001	-9.7995800E-001	0
7.285125815962092E+002	-2.5775930E-001	-9.8000240E-001	0
7.335125814698986E+002	-2.5705284E-001	-9.7997701E-001	0
7.385125813435880E+002	-2.5651824E-001	-9.8001516E-001	0
7.435125812172773E+002	-2.5563991E-001	-9.7997701E-001	0
7.485125810909667E+002	-2.5521988E-001	-9.7996432E-001	0
7.535125809646561E+002	-2.5447521E-001	-9.7998339E-001	0
7.585125808383455E+002	-2.5405514E-001	-9.7999609E-001	0
7.635125807120348E+002	-2.5338688E-001	-9.8001516E-001	0
7.673203806158417E+002	-2.5289044E-001	-9.8001516E-001	0