time/s	Ewe/V	I/mA	error	
1.326695498549180E+004	-3.4591125E-003	-1.9438638E-001	0
1.326695518549180E+004	-1.3000981E-002	-1.9587593E-001	0
1.326695538549180E+004	-1.7265091E-002	-1.9583775E-001	0
1.326695558549179E+004	-1.9307539E-002	-1.9588865E-001	0
1.326695578549179E+004	-2.0452838E-002	-1.9593322E-001	0
1.326695618549178E+004	-2.1979902E-002	-1.9595869E-001	0
1.326695658549177E+004	-2.3087025E-002	-1.9595233E-001	0
1.326695698549178E+004	-2.4117794E-002	-1.9595233E-001	0
1.326695758549176E+004	-2.5339445E-002	-1.9592048E-001	0
1.326695818549175E+004	-2.6675627E-002	-1.9589503E-001	0
1.326695878549175E+004	-2.7744573E-002	-1.9586955E-001	0
1.326695938549173E+004	-2.8794428E-002	-1.9590139E-001	0
1.326695998549173E+004	-2.9901551E-002	-1.9587593E-001	0
1.326696058549173E+004	-3.1199556E-002	-1.9590776E-001	0
1.326696138549174E+004	-3.2478470E-002	-1.9590139E-001	0
1.326696218549172E+004	-3.3833742E-002	-1.9589503E-001	0
1.326696298549170E+004	-3.5169922E-002	-1.9592048E-001	0
1.326696378549169E+004	-3.6563370E-002	-1.9593322E-001	0
1.326696458549169E+004	-3.7956815E-002	-1.9593960E-001	0
1.326696538549167E+004	-3.9083026E-002	-1.9588231E-001	0
1.326696618549165E+004	-4.0304679E-002	-1.9593960E-001	0
1.326696698549164E+004	-4.1602682E-002	-1.9597778E-001	0
1.326696778549164E+004	-4.2747982E-002	-1.9589503E-001	0
1.326696858549163E+004	-4.3950547E-002	-1.9588865E-001	0
1.326696938549163E+004	-4.5229461E-002	-1.9586320E-001	0
1.326697018549163E+004	-4.6336584E-002	-1.9589503E-001	0
1.326697098549161E+004	-4.7443707E-002	-1.9587593E-001	0
1.326697178549159E+004	-4.8837151E-002	-1.9590776E-001	0
1.326697258549159E+004	-4.9848832E-002	-1.9590139E-001	0
1.326697338549158E+004	-5.0955955E-002	-1.9592685E-001	0
1.326697418549156E+004	-5.2005813E-002	-1.9582501E-001	0
1.326697478549155E+004	-5.3055670E-002	-1.9587593E-001	0
1.326697558549154E+004	-5.4124616E-002	-1.9597778E-001	0
1.326697658549153E+004	-5.5460796E-002	-1.9595869E-001	0
1.326697738549153E+004	-5.6625184E-002	-1.9590776E-001	0
1.326697838549151E+004	-5.8075894E-002	-1.9592685E-001	0
1.326697938549150E+004	-5.9240282E-002	-1.9587593E-001	0
1.326698018549150E+004	-6.0366493E-002	-1.9591413E-001	0
1.326698118549149E+004	-6.1569054E-002	-1.9586955E-001	0
1.326698218549146E+004	-6.2886149E-002	-1.9594595E-001	0
1.326698318549145E+004	-6.4145975E-002	-1.9590776E-001	0
1.326698418549144E+004	-6.5329447E-002	-1.9590139E-001	0
1.326698498549144E+004	-6.6436574E-002	-1.9595869E-001	0
1.326698598549142E+004	-6.7658223E-002	-1.9592685E-001	0
1.326698678549143E+004	-6.8708085E-002	-1.9587593E-001	0
1.326698778549142E+004	-6.9948822E-002	-1.9585684E-001	0
1.326698878549138E+004	-7.1151383E-002	-1.9588231E-001	0
1.326698978549137E+004	-7.2277598E-002	-1.9592685E-001	0
1.326699078549136E+004	-7.3422894E-002	-1.9589503E-001	0
1.326699158549134E+004	-7.4453659E-002	-1.9585684E-001	0
1.326699258549133E+004	-7.5789846E-002	-1.9587593E-001	0
1.326699358549132E+004	-7.6916054E-002	-1.9592685E-001	0
1.326699458549134E+004	-7.8042261E-002	-1.9589503E-001	0
1.326699558549133E+004	-7.9092123E-002	-1.9595869E-001	0
1.326699658549129E+004	-8.0180153E-002	-1.9588231E-001	0
1.326699758549128E+004	-8.1478156E-002	-1.9595869E-001	0
1.326699858549127E+004	-8.2489841E-002	-1.9588865E-001	0
1.326699958549126E+004	-8.3577871E-002	-1.9586955E-001	0
1.326700058549125E+004	-8.4780440E-002	-1.9587593E-001	0
1.326700158549123E+004	-8.5906647E-002	-1.9595233E-001	0
1.326700278549122E+004	-8.7147385E-002	-1.9592685E-001	0
1.326700398549120E+004	-8.8407218E-002	-1.9591413E-001	0
1.326700518549120E+004	-8.9762487E-002	-1.9595869E-001	0
1.326700638549117E+004	-9.0984136E-002	-1.9586955E-001	0
1.326700758549116E+004	-9.2186704E-002	-1.9590139E-001	0
1.326700858549114E+004	-9.3255647E-002	-1.9586320E-001	0
1.326700978549113E+004	-9.4458207E-002	-1.9592048E-001	0
1.326701078549112E+004	-9.5546246E-002	-1.9591413E-001	0
1.326701198549112E+004	-9.6557923E-002	-1.9585684E-001	0
1.326701298549111E+004	-9.7760491E-002	-1.9593960E-001	0
1.326701418549108E+004	-9.8886698E-002	-1.9599688E-001	0
1.326701538549106E+004	-1.0008926E-001	-1.9587593E-001	0
1.326701658549104E+004	-1.0123456E-001	-1.9588231E-001	0
1.326701778549103E+004	-1.0226533E-001	-1.9592048E-001	0
1.326701898549101E+004	-1.0352515E-001	-1.9586955E-001	0
1.326701998549103E+004	-1.0455593E-001	-1.9591413E-001	0
1.326702118549100E+004	-1.0560578E-001	-1.9594595E-001	0
1.326702238549099E+004	-1.0669382E-001	-1.9589503E-001	0
1.326702338549097E+004	-1.0772458E-001	-1.9593322E-001	0
1.326702478549094E+004	-1.0892715E-001	-1.9592048E-001	0
1.326702598549094E+004	-1.0993883E-001	-1.9586955E-001	0
1.326702718549092E+004	-1.1112230E-001	-1.9585684E-001	0
1.326702858549092E+004	-1.1240122E-001	-1.9594595E-001	0
1.326702998549090E+004	-1.1348926E-001	-1.9591413E-001	0
1.326703118549088E+004	-1.1457729E-001	-1.9592685E-001	0
1.326703238549085E+004	-1.1558897E-001	-1.9589503E-001	0
1.326703358549083E+004	-1.1665791E-001	-1.9590776E-001	0
1.326703478549083E+004	-1.1776504E-001	-1.9595233E-001	0
1.326703638549082E+004	-1.1891034E-001	-1.9592685E-001	0
1.326703758549082E+004	-1.2007472E-001	-1.9588231E-001	0
1.326703898549078E+004	-1.2116276E-001	-1.9599052E-001	0
1.326704038549078E+004	-1.2228896E-001	-1.9590776E-001	0
1.326704178549074E+004	-1.2341517E-001	-1.9597778E-001	0
1.326704318549072E+004	-1.2456048E-001	-1.9593322E-001	0
1.326704458549072E+004	-1.2574394E-001	-1.9599052E-001	0
1.326704598549069E+004	-1.2679380E-001	-1.9592685E-001	0
1.326704758549068E+004	-1.2792002E-001	-1.9593960E-001	0
1.326704878549065E+004	-1.2893169E-001	-1.9591413E-001	0
1.326705038549064E+004	-1.3007699E-001	-1.9592048E-001	0
1.326705178549062E+004	-1.3116503E-001	-1.9592685E-001	0
1.326705338549061E+004	-1.3223398E-001	-1.9596504E-001	0
1.326705478549059E+004	-1.3339835E-001	-1.9592685E-001	0
1.326705638549058E+004	-1.3456275E-001	-1.9592685E-001	0
1.326705818549055E+004	-1.3584167E-001	-1.9586955E-001	0
1.326705978549052E+004	-1.3685334E-001	-1.9590776E-001	0
1.326706118549051E+004	-1.3788411E-001	-1.9586955E-001	0
1.326706278549050E+004	-1.3889579E-001	-1.9590776E-001	0
1.326706398549047E+004	-1.3994564E-001	-1.9590776E-001	0
1.326706598549045E+004	-1.4111003E-001	-1.9587593E-001	0
1.326706758549043E+004	-1.4235078E-001	-1.9590776E-001	0
1.326706938549041E+004	-1.4340062E-001	-1.9588865E-001	0
1.326707098549040E+004	-1.4448866E-001	-1.9588865E-001	0
1.326707258549039E+004	-1.4555761E-001	-1.9590776E-001	0
1.326707438549034E+004	-1.4656930E-001	-1.9588865E-001	0
1.326707618549032E+004	-1.4769550E-001	-1.9591413E-001	0
1.326707798549031E+004	-1.4885989E-001	-1.9590139E-001	0
1.326707958549031E+004	-1.4989066E-001	-1.9585046E-001	0
1.326708138549028E+004	-1.5097868E-001	-1.9593322E-001	0
1.326708338549023E+004	-1.5199037E-001	-1.9589503E-001	0
1.326708498549022E+004	-1.5307841E-001	-1.9594595E-001	0
1.326708678549020E+004	-1.5420461E-001	-1.9590776E-001	0
1.326708878549018E+004	-1.5533082E-001	-1.9588865E-001	0
1.326709078549015E+004	-1.5638068E-001	-1.9589503E-001	0
1.326709278549012E+004	-1.5743054E-001	-1.9593322E-001	0
1.326709478549010E+004	-1.5849948E-001	-1.9593322E-001	0
1.326709658549009E+004	-1.5953025E-001	-1.9590139E-001	0
1.326709878549006E+004	-1.6067556E-001	-1.9597141E-001	0
1.326710058549003E+004	-1.6172540E-001	-1.9594595E-001	0
1.326710258549001E+004	-1.6275617E-001	-1.9593960E-001	0
1.326710478549000E+004	-1.6386330E-001	-1.9587593E-001	0
1.326710678548997E+004	-1.6487499E-001	-1.9589503E-001	0
1.326710918548993E+004	-1.6594392E-001	-1.9586320E-001	0
1.326711118548991E+004	-1.6697469E-001	-1.9592685E-001	0
1.326711338548988E+004	-1.6804364E-001	-1.9592685E-001	0
1.326711578548985E+004	-1.6911258E-001	-1.9592048E-001	0
1.326711818548982E+004	-1.7020062E-001	-1.9586320E-001	0
1.326712018548980E+004	-1.7125048E-001	-1.9594595E-001	0
1.326712278548977E+004	-1.7235760E-001	-1.9590139E-001	0
1.326712518548973E+004	-1.7340745E-001	-1.9591413E-001	0
1.326712778548971E+004	-1.7449549E-001	-1.9592685E-001	0
1.326713038548967E+004	-1.7567897E-001	-1.9586320E-001	0
1.326713298548963E+004	-1.7672881E-001	-1.9592685E-001	0
1.326713558548961E+004	-1.7777868E-001	-1.9589503E-001	0
1.326713818548957E+004	-1.7886671E-001	-1.9592048E-001	0
1.326714058548954E+004	-1.7989747E-001	-1.9592685E-001	0
1.326714398548950E+004	-1.8113822E-001	-1.9582501E-001	0
1.326714698548947E+004	-1.8216899E-001	-1.9592685E-001	0
1.326714998548944E+004	-1.8323794E-001	-1.9593960E-001	0
1.326715258548940E+004	-1.8430687E-001	-1.9592048E-001	0
1.326715558548938E+004	-1.8535674E-001	-1.9595869E-001	0
1.326715858548932E+004	-1.8636842E-001	-1.9587593E-001	0
1.326716158548932E+004	-1.8741827E-001	-1.9592048E-001	0
1.326716478548927E+004	-1.8850631E-001	-1.9595233E-001	0
1.326716778548922E+004	-1.8951799E-001	-1.9590776E-001	0
1.326717118548919E+004	-1.9062510E-001	-1.9599688E-001	0
1.326717498548912E+004	-1.9171314E-001	-1.9585684E-001	0
1.326717858548909E+004	-1.9272482E-001	-1.9586320E-001	0
1.326718158548906E+004	-1.9373651E-001	-1.9591413E-001	0
1.326718538548901E+004	-1.9484362E-001	-1.9589503E-001	0
1.326718938548896E+004	-1.9587439E-001	-1.9595869E-001	0
1.326719298548892E+004	-1.9690517E-001	-1.9592048E-001	0
1.326719678548886E+004	-1.9795501E-001	-1.9594595E-001	0
1.326720158548880E+004	-1.9898579E-001	-1.9585684E-001	0
1.326720558548876E+004	-2.0001656E-001	-1.9591413E-001	0
1.326721038548870E+004	-2.0104733E-001	-1.9593322E-001	0
1.326721458548866E+004	-2.0207809E-001	-1.9597778E-001	0
1.326721958548859E+004	-2.0314704E-001	-1.9592685E-001	0
1.326722498548852E+004	-2.0425417E-001	-1.9586955E-001	0
1.326723058548846E+004	-2.0526583E-001	-1.9599052E-001	0
1.326723658548840E+004	-2.0631570E-001	-1.9588231E-001	0
1.326724278548831E+004	-2.0740373E-001	-1.9590776E-001	0
1.326725118548820E+004	-2.0847268E-001	-1.9592048E-001	0
1.326725898548811E+004	-2.0959888E-001	-1.9593960E-001	0
1.326727038548798E+004	-2.1062966E-001	-1.9597141E-001	0
1.326728438548780E+004	-2.1164134E-001	-1.9590139E-001	0
1.326733678548718E+004	-2.1062966E-001	-1.9591413E-001	0
1.326734778548704E+004	-2.0959888E-001	-1.9599688E-001	0
1.326735578548696E+004	-2.0858721E-001	-1.9590776E-001	0
1.326736418548685E+004	-2.0751826E-001	-1.9590139E-001	0
1.326737118548676E+004	-2.0646840E-001	-1.9587593E-001	0
1.326737798548667E+004	-2.0539945E-001	-1.9592048E-001	0
1.326738418548659E+004	-2.0434961E-001	-1.9595233E-001	0
1.326738978548654E+004	-2.0329975E-001	-1.9586320E-001	0
1.326739558548646E+004	-2.0217353E-001	-1.9589503E-001	0
1.326740098548640E+004	-2.0112368E-001	-1.9593322E-001	0
1.326740618548634E+004	-2.0009291E-001	-1.9588865E-001	0
1.326741158548629E+004	-1.9900487E-001	-1.9586320E-001	0
1.326741598548621E+004	-1.9797410E-001	-1.9590776E-001	0
1.326742058548616E+004	-1.9696243E-001	-1.9588865E-001	0
1.326742598548609E+004	-1.9581713E-001	-1.9587593E-001	0
1.326743078548604E+004	-1.9478635E-001	-1.9586955E-001	0
1.326743538548598E+004	-1.9375560E-001	-1.9595233E-001	0
1.326743938548594E+004	-1.9274391E-001	-1.9585684E-001	0
1.326744418548587E+004	-1.9171314E-001	-1.9593322E-001	0
1.326744818548583E+004	-1.9064419E-001	-1.9591413E-001	0
1.326745318548576E+004	-1.8957525E-001	-1.9595233E-001	0
1.326745758548571E+004	-1.8848722E-001	-1.9597778E-001	0
1.326746218548567E+004	-1.8739918E-001	-1.9593322E-001	0
1.326746678548559E+004	-1.8633024E-001	-1.9597778E-001	0
1.326747078548555E+004	-1.8529947E-001	-1.9590776E-001	0
1.326747518548550E+004	-1.8417326E-001	-1.9592685E-001	0
1.326747978548546E+004	-1.8314250E-001	-1.9588865E-001	0
1.326748438548538E+004	-1.8199719E-001	-1.9595233E-001	0
1.326748918548533E+004	-1.8092825E-001	-1.9597778E-001	0
1.326749358548527E+004	-1.7989747E-001	-1.9593322E-001	0
1.326749738548524E+004	-1.7886671E-001	-1.9590139E-001	0
1.326750178548518E+004	-1.7781685E-001	-1.9589503E-001	0
1.326750638548512E+004	-1.7676699E-001	-1.9592685E-001	0
1.326751098548506E+004	-1.7571715E-001	-1.9590139E-001	0
1.326751518548501E+004	-1.7470546E-001	-1.9587593E-001	0
1.326751978548497E+004	-1.7365560E-001	-1.9593322E-001	0
1.326752458548489E+004	-1.7256756E-001	-1.9586320E-001	0
1.326752918548485E+004	-1.7151771E-001	-1.9597778E-001	0
1.326753338548479E+004	-1.7050603E-001	-1.9587593E-001	0
1.326753798548474E+004	-1.6945617E-001	-1.9592685E-001	0
1.326754278548468E+004	-1.6844450E-001	-1.9595869E-001	0
1.326754758548463E+004	-1.6739464E-001	-1.9588865E-001	0
1.326755178548457E+004	-1.6638295E-001	-1.9592048E-001	0
1.326755638548452E+004	-1.6531400E-001	-1.9595869E-001	0
1.326756218548445E+004	-1.6430233E-001	-1.9592048E-001	0
1.326756638548439E+004	-1.6329065E-001	-1.9587593E-001	0
1.326757158548434E+004	-1.6218352E-001	-1.9590776E-001	0
1.326757718548426E+004	-1.6107641E-001	-1.9591413E-001	0
1.326758278548419E+004	-1.5998837E-001	-1.9597141E-001	0
1.326758818548414E+004	-1.5893851E-001	-1.9593960E-001	0
1.326759358548406E+004	-1.5788865E-001	-1.9593322E-001	0
1.326759938548399E+004	-1.5683880E-001	-1.9590776E-001	0
1.326760518548393E+004	-1.5580803E-001	-1.9588231E-001	0
1.326761098548386E+004	-1.5477726E-001	-1.9595233E-001	0
1.326761718548377E+004	-1.5368924E-001	-1.9594595E-001	0
1.326762338548372E+004	-1.5267755E-001	-1.9595233E-001	0
1.326762918548365E+004	-1.5158951E-001	-1.9592685E-001	0
1.326763638548355E+004	-1.5048240E-001	-1.9592685E-001	0
1.326764318548347E+004	-1.4943254E-001	-1.9590776E-001	0
1.326764938548338E+004	-1.4842086E-001	-1.9587593E-001	0
1.326765718548329E+004	-1.4729464E-001	-1.9593960E-001	0
1.326766498548321E+004	-1.4628297E-001	-1.9593322E-001	0
1.326767258548312E+004	-1.4517584E-001	-1.9590776E-001	0
1.326768138548301E+004	-1.4416416E-001	-1.9587593E-001	0
1.326768978548291E+004	-1.4313340E-001	-1.9595233E-001	0
1.326769798548281E+004	-1.4212172E-001	-1.9593322E-001	0
1.326770678548270E+004	-1.4111003E-001	-1.9592685E-001	0
1.326771598548257E+004	-1.4007926E-001	-1.9599688E-001	0
1.326772578548246E+004	-1.3899124E-001	-1.9591413E-001	0
1.326773698548233E+004	-1.3797955E-001	-1.9595869E-001	0
1.326774758548220E+004	-1.3696787E-001	-1.9593322E-001	0
1.326776118548203E+004	-1.3586076E-001	-1.9588231E-001	0
1.326777478548186E+004	-1.3482998E-001	-1.9597141E-001	0
1.326778678548173E+004	-1.3379921E-001	-1.9591413E-001	0
1.326780158548155E+004	-1.3278753E-001	-1.9591413E-001	0
1.326781838548134E+004	-1.3175677E-001	-1.9592685E-001	0
1.326783498548114E+004	-1.3072599E-001	-1.9594595E-001	0
1.326785398548094E+004	-1.2971431E-001	-1.9588231E-001	0
1.326787558548065E+004	-1.2870264E-001	-1.9594595E-001	0
1.326789838548038E+004	-1.2767187E-001	-1.9592048E-001	0
1.326792618548003E+004	-1.2664109E-001	-1.9593960E-001	0
1.326795538547970E+004	-1.2561032E-001	-1.9592048E-001	0
1.326799358547921E+004	-1.2459865E-001	-1.9592048E-001	0
1.326803238547874E+004	-1.2356788E-001	-1.9596504E-001	0
1.326808458547812E+004	-1.2251803E-001	-1.9588865E-001	0
1.326815018547732E+004	-1.2150634E-001	-1.9592048E-001	0
1.326822578547640E+004	-1.2049466E-001	-1.9591413E-001	0
1.326834418547497E+004	-1.1946390E-001	-1.9587593E-001	0
1.326850158547307E+004	-1.1845221E-001	-1.9590139E-001	0
1.326880378546941E+004	-1.1744054E-001	-1.9593322E-001	0
1.326975958545784E+004	-1.1642885E-001	-1.9589503E-001	0
1.327292058541958E+004	-1.1744054E-001	-1.9597778E-001	0
1.327792058535904E+004	-1.1816589E-001	-1.9598414E-001	0
1.328292058529850E+004	-1.1772686E-001	-1.9597141E-001	0
1.328780738523933E+004	-1.1671518E-001	-1.9592685E-001	0
1.329280738517879E+004	-1.1600891E-001	-1.9595869E-001	0
1.329673378513125E+004	-1.1499723E-001	-1.9590776E-001	0
1.330173378507071E+004	-1.1431005E-001	-1.9597141E-001	0
1.330673378501018E+004	-1.1360379E-001	-1.9598414E-001	0
1.331173378494964E+004	-1.1295478E-001	-1.9593960E-001	0
1.331673378488910E+004	-1.1247757E-001	-1.9592048E-001	0
1.332173378482857E+004	-1.1207672E-001	-1.9591413E-001	0
1.332673378476803E+004	-1.1165678E-001	-1.9597141E-001	0
1.333173378470750E+004	-1.1129410E-001	-1.9591413E-001	0
1.333673378464696E+004	-1.1085507E-001	-1.9594595E-001	0
1.334173378458642E+004	-1.1066418E-001	-1.9595233E-001	0
1.334673378452589E+004	-1.1020607E-001	-1.9597141E-001	0
1.335173378446535E+004	-1.0997701E-001	-1.9597141E-001	0
1.335673378440482E+004	-1.0963342E-001	-1.9599052E-001	0
1.336173378434428E+004	-1.0942344E-001	-1.9597778E-001	0
1.336673378428374E+004	-1.0898441E-001	-1.9592048E-001	0
1.337173378422321E+004	-1.0883170E-001	-1.9595869E-001	0
1.337673378416267E+004	-1.0844994E-001	-1.9592685E-001	0
1.338173378410214E+004	-1.0818271E-001	-1.9604780E-001	0
1.338673378404160E+004	-1.0778185E-001	-1.9592685E-001	0
1.339173378398106E+004	-1.0753370E-001	-1.9592048E-001	0
1.339673378392053E+004	-1.0726646E-001	-1.9596504E-001	0
1.340173378385999E+004	-1.0698014E-001	-1.9599688E-001	0
1.340673378379946E+004	-1.0675108E-001	-1.9596504E-001	0
1.341173378373892E+004	-1.0638840E-001	-1.9590776E-001	0
1.341673378367838E+004	-1.0610208E-001	-1.9598414E-001	0
1.342173378361785E+004	-1.0579666E-001	-1.9599052E-001	0
1.342673378355731E+004	-1.0545307E-001	-1.9592048E-001	0
1.343173378349678E+004	-1.0522401E-001	-1.9599052E-001	0
1.343673378343624E+004	-1.0493769E-001	-1.9598414E-001	0
1.344173378337570E+004	-1.0453684E-001	-1.9600324E-001	0
1.344673378331517E+004	-1.0438413E-001	-1.9597778E-001	0
1.345173378325463E+004	-1.0402145E-001	-1.9592048E-001	0
1.345673378319410E+004	-1.0369695E-001	-1.9595233E-001	0
1.346173378313356E+004	-1.0341062E-001	-1.9586955E-001	0
1.346673378307302E+004	-1.0304795E-001	-1.9598414E-001	0
1.347173378301249E+004	-1.0285707E-001	-1.9591413E-001	0
1.347673378295195E+004	-1.0255165E-001	-1.9592048E-001	0
1.348173378289142E+004	-1.0232259E-001	-1.9598414E-001	0
1.348673378283088E+004	-1.0201718E-001	-1.9590139E-001	0
1.349173378277035E+004	-1.0174994E-001	-1.9596504E-001	0
1.349673378270981E+004	-1.0142545E-001	-1.9596504E-001	0
1.350173378264927E+004	-1.0119639E-001	-1.9591413E-001	0
1.350673378258874E+004	-1.0083371E-001	-1.9599688E-001	0
1.351173378252820E+004	-1.0056647E-001	-1.9594595E-001	0
1.351673378246767E+004	-1.0022288E-001	-1.9593322E-001	0
1.352173378240713E+004	-9.9993818E-002	-1.9594595E-001	0
1.352673378234659E+004	-9.9592969E-002	-1.9599052E-001	0
1.353173378228606E+004	-9.9516615E-002	-1.9597141E-001	0
1.353673378222552E+004	-9.9211201E-002	-1.9588231E-001	0
1.354173378216499E+004	-9.8848522E-002	-1.9593960E-001	0
1.354673378210445E+004	-9.8638549E-002	-1.9590139E-001	0
1.355173378204391E+004	-9.8333135E-002	-1.9592685E-001	0
1.355673378198338E+004	-9.8084986E-002	-1.9590139E-001	0
1.356173378192284E+004	-9.8046809E-002	-1.9595233E-001	0
1.356673378186231E+004	-9.7626872E-002	-1.9596504E-001	0
1.357173378180177E+004	-9.7321458E-002	-1.9604142E-001	0
1.357673378174123E+004	-9.7149663E-002	-1.9597141E-001	0
1.358173378168070E+004	-9.6806072E-002	-1.9588231E-001	0
1.358673378162016E+004	-9.6500657E-002	-1.9592685E-001	0
1.359173378155963E+004	-9.6462481E-002	-1.9591413E-001	0
1.359673378149909E+004	-9.6233420E-002	-1.9597778E-001	0
1.360173378143855E+004	-9.5928013E-002	-1.9594595E-001	0
1.360673378137802E+004	-9.5851660E-002	-1.9599052E-001	0
1.361173378131748E+004	-9.5584422E-002	-1.9597141E-001	0
1.361673378125695E+004	-9.5508069E-002	-1.9593322E-001	0
1.362173378119641E+004	-9.5240831E-002	-1.9590776E-001	0
1.362673378113587E+004	-9.4801798E-002	-1.9595233E-001	0
1.363173378107534E+004	-9.4859064E-002	-1.9598414E-001	0
1.363673378101480E+004	-9.4362766E-002	-1.9599052E-001	0
1.364173378095427E+004	-9.4286412E-002	-1.9587593E-001	0
1.364673378089373E+004	-9.4190970E-002	-1.9589503E-001	0
1.365173378083319E+004	-9.3828298E-002	-1.9600962E-001	0
1.365673378077266E+004	-9.3771033E-002	-1.9597141E-001	0
1.366173378071212E+004	-9.3522884E-002	-1.9590139E-001	0
1.366673378065159E+004	-9.3351088E-002	-1.9595869E-001	0
1.367173378059105E+004	-9.3102939E-002	-1.9591413E-001	0
1.367673378053051E+004	-9.3064763E-002	-1.9591413E-001	0
1.368173378046998E+004	-9.2912056E-002	-1.9596504E-001	0
1.368673378040944E+004	-9.2682995E-002	-1.9593960E-001	0
1.369173378034891E+004	-9.2434846E-002	-1.9595869E-001	0
1.369673378028837E+004	-9.2224881E-002	-1.9600962E-001	0
1.370173378022783E+004	-9.1938555E-002	-1.9596504E-001	0
1.370673378016730E+004	-9.1747671E-002	-1.9595869E-001	0
1.371173378010676E+004	-9.1785848E-002	-1.9596504E-001	0
1.371673378004623E+004	-9.1614053E-002	-1.9598414E-001	0
1.372173377998569E+004	-9.1518611E-002	-1.9602871E-001	0
1.372673377992515E+004	-9.1251373E-002	-1.9595233E-001	0
1.373173377986462E+004	-9.1041401E-002	-1.9595233E-001	0
1.373673377980408E+004	-9.0926871E-002	-1.9598414E-001	0
1.374173377974355E+004	-9.0831429E-002	-1.9592048E-001	0
1.374673377968301E+004	-9.0564191E-002	-1.9599688E-001	0
1.375173377962247E+004	-9.0468757E-002	-1.9600324E-001	0
1.375673377956194E+004	-9.0258785E-002	-1.9600962E-001	0
1.376173377950140E+004	-9.0086989E-002	-1.9598414E-001	0
1.376673377944087E+004	-9.0010636E-002	-1.9597778E-001	0
1.377173377938033E+004	-8.9762487E-002	-1.9595233E-001	0
1.377673377931979E+004	-8.9628868E-002	-1.9601598E-001	0
1.378173377925926E+004	-8.9590691E-002	-1.9591413E-001	0
1.378673377919872E+004	-8.9437984E-002	-1.9598414E-001	0
1.379173377913819E+004	-8.9266188E-002	-1.9599052E-001	0
1.379673377907765E+004	-8.9037128E-002	-1.9600962E-001	0
1.380173377901712E+004	-8.9037128E-002	-1.9593960E-001	0
1.380673377895658E+004	-8.8884421E-002	-1.9597141E-001	0
1.381173377889604E+004	-8.8617191E-002	-1.9591413E-001	0
1.381673377883551E+004	-8.8445395E-002	-1.9593322E-001	0
1.382173377877497E+004	-8.8330865E-002	-1.9594595E-001	0
1.382673377871444E+004	-8.8254511E-002	-1.9592048E-001	0
1.383173377865390E+004	-8.8159069E-002	-1.9600324E-001	0
1.383673377859336E+004	-8.7968186E-002	-1.9598414E-001	0
1.384173377853283E+004	-8.7758213E-002	-1.9590776E-001	0
1.384673377847229E+004	-8.7720037E-002	-1.9600962E-001	0
1.385173377841176E+004	-8.7567329E-002	-1.9593960E-001	0
1.385673377835122E+004	-8.7433711E-002	-1.9594595E-001	0
1.386173377829068E+004	-8.7338269E-002	-1.9593322E-001	0
1.386673377823015E+004	-8.7242827E-002	-1.9593322E-001	0
1.387173377816961E+004	-8.7128296E-002	-1.9598414E-001	0
1.387673377810908E+004	-8.7128296E-002	-1.9596504E-001	0
1.388173377804854E+004	-8.7032855E-002	-1.9592685E-001	0
1.388673377798800E+004	-8.6841978E-002	-1.9594595E-001	0
1.389173377792747E+004	-8.6784713E-002	-1.9595233E-001	0
1.389673377786693E+004	-8.6593829E-002	-1.9596504E-001	0
1.390173377780640E+004	-8.6555652E-002	-1.9588231E-001	0
1.390673377774586E+004	-8.6288415E-002	-1.9596504E-001	0
1.391173377768532E+004	-8.6269327E-002	-1.9593960E-001	0
1.391673377762479E+004	-8.6135708E-002	-1.9598414E-001	0
1.392173377756425E+004	-8.5963912E-002	-1.9595233E-001	0
1.392673377750372E+004	-8.5792117E-002	-1.9602233E-001	0
1.393173377744318E+004	-8.5868470E-002	-1.9591413E-001	0
1.393673377738264E+004	-8.5696675E-002	-1.9597141E-001	0
1.394173377732211E+004	-8.5467614E-002	-1.9595869E-001	0
1.394673377726157E+004	-8.5448526E-002	-1.9597141E-001	0
1.395173377720104E+004	-8.5429437E-002	-1.9596504E-001	0
1.395673377714050E+004	-8.5162200E-002	-1.9600324E-001	0
1.396173377707996E+004	-8.5200377E-002	-1.9597778E-001	0
1.396673377701943E+004	-8.5066766E-002	-1.9595869E-001	0
1.397173377695889E+004	-8.4971324E-002	-1.9599688E-001	0
1.397673377689836E+004	-8.4856793E-002	-1.9595233E-001	0
1.398173377683782E+004	-8.4780440E-002	-1.9604142E-001	0
1.398673377677728E+004	-8.4704086E-002	-1.9595869E-001	0
1.399173377671675E+004	-8.4646821E-002	-1.9593322E-001	0
1.399673377665621E+004	-8.4475026E-002	-1.9600962E-001	0
1.400173377659568E+004	-8.4360495E-002	-1.9593322E-001	0
1.400673377653514E+004	-8.4284142E-002	-1.9597141E-001	0
1.401173377647460E+004	-8.4245965E-002	-1.9597778E-001	0
1.401673377641407E+004	-8.4093258E-002	-1.9595869E-001	0
1.402173377635353E+004	-8.4055081E-002	-1.9598414E-001	0
1.402673377629300E+004	-8.3978727E-002	-1.9598414E-001	0
1.403173377623246E+004	-8.3902374E-002	-1.9595869E-001	0
1.403673377617192E+004	-8.3826020E-002	-1.9602233E-001	0
1.404173377611139E+004	-8.3692402E-002	-1.9596504E-001	0
1.404673377605085E+004	-8.3673313E-002	-1.9602233E-001	0
1.405173377599032E+004	-8.3596960E-002	-1.9593960E-001	0
1.405673377592978E+004	-8.3425164E-002	-1.9591413E-001	0
1.406173377586924E+004	-8.3406076E-002	-1.9596504E-001	0
1.406673377580871E+004	-8.3196111E-002	-1.9600962E-001	0
1.407173377574817E+004	-8.3253376E-002	-1.9596504E-001	0
1.407673377568764E+004	-8.3138846E-002	-1.9591413E-001	0
1.408173377562710E+004	-8.2928874E-002	-1.9593322E-001	0
1.408673377556656E+004	-8.2909785E-002	-1.9601598E-001	0
1.409173377550603E+004	-8.2852520E-002	-1.9597141E-001	0
1.409673377544549E+004	-8.2699813E-002	-1.9599052E-001	0
1.410173377538496E+004	-8.2737990E-002	-1.9600962E-001	0
1.410673377532442E+004	-8.2737990E-002	-1.9590139E-001	0
1.411173377526389E+004	-8.2547106E-002	-1.9595869E-001	0
1.411673377520335E+004	-8.2604371E-002	-1.9590776E-001	0
1.412173377514281E+004	-8.2470752E-002	-1.9597141E-001	0
1.412673377508228E+004	-8.2318045E-002	-1.9594595E-001	0
1.413173377502174E+004	-8.2279868E-002	-1.9596504E-001	0
1.413673377496121E+004	-8.2394399E-002	-1.9599688E-001	0
1.414173377490067E+004	-8.2031719E-002	-1.9583137E-001	0
1.414673377484013E+004	-8.2031719E-002	-1.9595233E-001	0
1.415173377477960E+004	-8.1993543E-002	-1.9599052E-001	0
1.415673377471906E+004	-8.1840836E-002	-1.9590776E-001	0
1.416173377465853E+004	-8.1802659E-002	-1.9600324E-001	0
1.416673377459799E+004	-8.1745394E-002	-1.9595869E-001	0
1.417173377453745E+004	-8.1592686E-002	-1.9596504E-001	0
1.417673377447692E+004	-8.1592686E-002	-1.9598414E-001	0
1.418173377441638E+004	-8.1592686E-002	-1.9593960E-001	0
1.418673377435585E+004	-8.1382722E-002	-1.9592685E-001	0
1.419173377429531E+004	-8.1401810E-002	-1.9602871E-001	0
1.419673377423477E+004	-8.1268191E-002	-1.9598414E-001	0
1.420173377417424E+004	-8.1191838E-002	-1.9593322E-001	0
1.420673377411370E+004	-8.1191838E-002	-1.9598414E-001	0
1.421173377405317E+004	-8.1210926E-002	-1.9592685E-001	0
1.421673377399263E+004	-8.1172749E-002	-1.9599688E-001	0
1.422173377393209E+004	-8.1000954E-002	-1.9599052E-001	0
1.422673377387156E+004	-8.0867335E-002	-1.9592685E-001	0
1.423173377381102E+004	-8.0943689E-002	-1.9596504E-001	0
1.423673377375049E+004	-8.0905512E-002	-1.9601598E-001	0
1.424173377368995E+004	-8.0848247E-002	-1.9591413E-001	0
1.424673377362941E+004	-8.0619186E-002	-1.9592685E-001	0
1.425173377356888E+004	-8.0657363E-002	-1.9597778E-001	0
1.425673377350834E+004	-8.0638275E-002	-1.9596504E-001	0
1.426173377344781E+004	-8.0313772E-002	-1.9596504E-001	0
1.426673377338727E+004	-8.0447391E-002	-1.9590139E-001	0
1.427173377332673E+004	-8.0390126E-002	-1.9590139E-001	0
1.427673377326620E+004	-8.0351949E-002	-1.9595233E-001	0
1.428173377320566E+004	-8.0332860E-002	-1.9597778E-001	0
1.428673377314513E+004	-8.0199242E-002	-1.9592685E-001	0
1.429173377308459E+004	-8.0218330E-002	-1.9594595E-001	0
1.429673377302405E+004	-8.0161065E-002	-1.9597778E-001	0
1.430173377296352E+004	-8.0027446E-002	-1.9595869E-001	0
1.430673377290298E+004	-8.0084711E-002	-1.9597778E-001	0
1.431173377284245E+004	-7.9874739E-002	-1.9597141E-001	0
1.431673377278191E+004	-7.9874739E-002	-1.9593322E-001	0
1.432173377272137E+004	-7.9817474E-002	-1.9595233E-001	0
1.432673377266084E+004	-7.9855651E-002	-1.9605418E-001	0
1.433173377260030E+004	-7.9760209E-002	-1.9597141E-001	0
1.433673377253977E+004	-7.9683855E-002	-1.9599052E-001	0
1.434173377247923E+004	-7.9626597E-002	-1.9590139E-001	0
1.434673377241869E+004	-7.9607509E-002	-1.9593960E-001	0
1.435173377235816E+004	-7.9512067E-002	-1.9597141E-001	0
1.435673377229762E+004	-7.9473890E-002	-1.9593322E-001	0
1.436173377223709E+004	-7.9321183E-002	-1.9590139E-001	0
1.436673377217655E+004	-7.9416625E-002	-1.9599052E-001	0
1.437173377211601E+004	-7.9359360E-002	-1.9597141E-001	0
1.437673377205548E+004	-7.9111211E-002	-1.9596504E-001	0
1.438173377199494E+004	-7.9263918E-002	-1.9597141E-001	0
1.438673377193441E+004	-7.9168476E-002	-1.9589503E-001	0
1.439173377187387E+004	-7.9168476E-002	-1.9599052E-001	0
1.439673377181333E+004	-7.9053946E-002	-1.9593322E-001	0
1.440173377175280E+004	-7.9015769E-002	-1.9597141E-001	0
1.440673377169226E+004	-7.8920327E-002	-1.9599688E-001	0
1.441173377163173E+004	-7.8824885E-002	-1.9603507E-001	0
1.441673377157119E+004	-7.8863062E-002	-1.9600324E-001	0
1.442173377151066E+004	-7.8843974E-002	-1.9593322E-001	0
1.442673377145012E+004	-7.8691266E-002	-1.9596504E-001	0
1.443173377138958E+004	-7.8710355E-002	-1.9594595E-001	0
1.443673377132905E+004	-7.8634001E-002	-1.9593960E-001	0
1.444173377126851E+004	-7.8614913E-002	-1.9594595E-001	0
1.444673377120798E+004	-7.8614913E-002	-1.9594595E-001	0
1.445173377114744E+004	-7.8519471E-002	-1.9598414E-001	0
1.445673377108690E+004	-7.8366764E-002	-1.9598414E-001	0
1.446173377102637E+004	-7.8404941E-002	-1.9598414E-001	0
1.446673377096583E+004	-7.8462206E-002	-1.9597778E-001	0
1.447173377090530E+004	-7.8347676E-002	-1.9592685E-001	0
1.447673377084476E+004	-7.8156792E-002	-1.9600324E-001	0
1.448173377078422E+004	-7.8175880E-002	-1.9599052E-001	0
1.448673377072369E+004	-7.8252234E-002	-1.9596504E-001	0
1.449173377066315E+004	-7.8194968E-002	-1.9595869E-001	0
1.449673377060262E+004	-7.8080438E-002	-1.9593960E-001	0
1.450173377054208E+004	-7.8061350E-002	-1.9597778E-001	0
1.450673377048154E+004	-7.8023173E-002	-1.9599052E-001	0
1.451173377042101E+004	-7.7946819E-002	-1.9592048E-001	0
1.451673377036047E+004	-7.7870466E-002	-1.9596504E-001	0
1.452173377029994E+004	-7.7832289E-002	-1.9590776E-001	0
1.452673377023940E+004	-7.7908643E-002	-1.9594595E-001	0
1.453173377017886E+004	-7.7870466E-002	-1.9594595E-001	0
1.453673377011833E+004	-7.7736855E-002	-1.9594595E-001	0
1.454173377005779E+004	-7.7794120E-002	-1.9593960E-001	0
1.454673376999726E+004	-7.7641413E-002	-1.9593322E-001	0
1.455173376993672E+004	-7.7736855E-002	-1.9596504E-001	0
1.455673376987618E+004	-7.7622324E-002	-1.9595233E-001	0
1.456173376981565E+004	-7.7603236E-002	-1.9596504E-001	0
1.456673376975511E+004	-7.7526882E-002	-1.9595869E-001	0
1.457173376969458E+004	-7.7584147E-002	-1.9595869E-001	0
1.457673376963404E+004	-7.7412352E-002	-1.9596504E-001	0
1.458173376957350E+004	-7.7393264E-002	-1.9599688E-001	0
1.458673376951297E+004	-7.7335998E-002	-1.9593322E-001	0
1.459173376945243E+004	-7.7355087E-002	-1.9599688E-001	0
1.459673376939190E+004	-7.7374175E-002	-1.9594595E-001	0
1.460173376933136E+004	-7.7221468E-002	-1.9606054E-001	0
1.460673376927082E+004	-7.7297822E-002	-1.9594595E-001	0
1.461173376921029E+004	-7.7164203E-002	-1.9599688E-001	0
1.461673376914975E+004	-7.7183291E-002	-1.9597141E-001	0
1.462173376908922E+004	-7.7068761E-002	-1.9598414E-001	0
1.462673376902868E+004	-7.7049673E-002	-1.9593322E-001	0
1.463173376896814E+004	-7.6973319E-002	-1.9596504E-001	0
1.463673376890761E+004	-7.7011496E-002	-1.9589503E-001	0
1.464173376884707E+004	-7.6954231E-002	-1.9599052E-001	0
1.464673376878654E+004	-7.6916054E-002	-1.9590776E-001	0
1.465173376872600E+004	-7.6935142E-002	-1.9595869E-001	0
1.465673376866546E+004	-7.6801524E-002	-1.9591413E-001	0
1.466173376860493E+004	-7.6839700E-002	-1.9597778E-001	0
1.466673376854439E+004	-7.6667905E-002	-1.9591413E-001	0
1.467173376848386E+004	-7.6610640E-002	-1.9590776E-001	0
1.467673376842332E+004	-7.6744258E-002	-1.9598414E-001	0
1.468173376836278E+004	-7.6706082E-002	-1.9589503E-001	0
1.468673376830225E+004	-7.6686993E-002	-1.9590776E-001	0
1.469173376824171E+004	-7.6686993E-002	-1.9597778E-001	0
1.469673376818118E+004	-7.6610640E-002	-1.9591413E-001	0
1.470173376812064E+004	-7.6534286E-002	-1.9588231E-001	0
1.470673376806010E+004	-7.6477021E-002	-1.9596504E-001	0
1.471173376799957E+004	-7.6515198E-002	-1.9593322E-001	0
1.471673376793903E+004	-7.6515198E-002	-1.9594595E-001	0
1.472173376787850E+004	-7.6438844E-002	-1.9598414E-001	0
1.472673376781796E+004	-7.6362491E-002	-1.9586955E-001	0
1.473173376775743E+004	-7.6419756E-002	-1.9597141E-001	0
1.473673376769689E+004	-7.6190695E-002	-1.9596504E-001	0
1.474173376763635E+004	-7.6305225E-002	-1.9601598E-001	0
1.474673376757582E+004	-7.6171607E-002	-1.9597141E-001	0
1.475173376751528E+004	-7.6190695E-002	-1.9593322E-001	0
1.475673376745475E+004	-7.6133430E-002	-1.9595869E-001	0
1.476173376739421E+004	-7.6190695E-002	-1.9599688E-001	0
1.476673376733367E+004	-7.5980730E-002	-1.9599052E-001	0
1.477173376727314E+004	-7.6018900E-002	-1.9593960E-001	0
1.477673376721260E+004	-7.5904377E-002	-1.9595233E-001	0
1.478173376715207E+004	-7.5866200E-002	-1.9591413E-001	0
1.478673376709153E+004	-7.5866200E-002	-1.9599688E-001	0
1.479173376703099E+004	-7.5942554E-002	-1.9592685E-001	0
1.479673376697046E+004	-7.5980730E-002	-1.9597141E-001	0
1.480173376690992E+004	-7.5904377E-002	-1.9594595E-001	0
1.480673376684939E+004	-7.5942554E-002	-1.9594595E-001	0
1.481173376678885E+004	-7.5713493E-002	-1.9590776E-001	0
1.481673376672831E+004	-7.5808935E-002	-1.9600962E-001	0
1.482173376666778E+004	-7.5598963E-002	-1.9596504E-001	0
1.482673376660724E+004	-7.5751670E-002	-1.9595233E-001	0
1.483173376654671E+004	-7.5541697E-002	-1.9595869E-001	0
1.483673376648617E+004	-7.5637139E-002	-1.9595869E-001	0
1.484173376642563E+004	-7.5465344E-002	-1.9592685E-001	0
1.484673376636510E+004	-7.5522609E-002	-1.9593960E-001	0
1.485173376630456E+004	-7.5484432E-002	-1.9594595E-001	0
1.485673376624403E+004	-7.5446256E-002	-1.9594595E-001	0
1.486173376618349E+004	-7.5446256E-002	-1.9599688E-001	0
1.486673376612295E+004	-7.5312637E-002	-1.9592048E-001	0
1.487173376606242E+004	-7.5484432E-002	-1.9599052E-001	0
1.487673376600188E+004	-7.5408079E-002	-1.9593322E-001	0
1.488173376594135E+004	-7.5350814E-002	-1.9594595E-001	0
1.488673376588081E+004	-7.5293548E-002	-1.9592048E-001	0
1.489173376582027E+004	-7.5198106E-002	-1.9597141E-001	0
1.489673376575974E+004	-7.5312637E-002	-1.9600324E-001	0
1.490173376569920E+004	-7.5121753E-002	-1.9600324E-001	0
1.490673376563867E+004	-7.5159930E-002	-1.9594595E-001	0
1.491173376557813E+004	-7.5274460E-002	-1.9595869E-001	0
1.491673376551759E+004	-7.5064488E-002	-1.9598414E-001	0
1.492173376545706E+004	-7.5045399E-002	-1.9585684E-001	0
1.492673376539652E+004	-7.5121753E-002	-1.9599052E-001	0
1.493173376533599E+004	-7.4949957E-002	-1.9594595E-001	0
1.493673376527545E+004	-7.5102665E-002	-1.9595233E-001	0
1.494173376521491E+004	-7.4988134E-002	-1.9596504E-001	0
1.494673376515438E+004	-7.4930869E-002	-1.9597141E-001	0
1.495173376509384E+004	-7.4873604E-002	-1.9596504E-001	0
1.495673376503331E+004	-7.4949957E-002	-1.9593960E-001	0
1.496173376497277E+004	-7.4873604E-002	-1.9598414E-001	0
1.496673376491223E+004	-7.4739985E-002	-1.9596504E-001	0
1.497173376485170E+004	-7.4682720E-002	-1.9595233E-001	0
1.497673376479116E+004	-7.4739985E-002	-1.9600962E-001	0
1.498173376473063E+004	-7.4816339E-002	-1.9592685E-001	0
1.498673376467009E+004	-7.4720897E-002	-1.9590776E-001	0
1.499173376460955E+004	-7.4701808E-002	-1.9593322E-001	0
1.499673376454902E+004	-7.4549101E-002	-1.9599052E-001	0
1.500173376448848E+004	-7.4625455E-002	-1.9590139E-001	0
1.500673376442795E+004	-7.4491836E-002	-1.9594595E-001	0
1.501173376436741E+004	-7.4491836E-002	-1.9588231E-001	0
1.501673376430688E+004	-7.4453659E-002	-1.9593960E-001	0
1.502173376424634E+004	-7.4549101E-002	-1.9596504E-001	0
1.502673376418580E+004	-7.4472748E-002	-1.9593322E-001	0
1.503173376412527E+004	-7.4415483E-002	-1.9586320E-001	0
1.503673376406473E+004	-7.4358217E-002	-1.9595233E-001	0
1.504173376400420E+004	-7.4396394E-002	-1.9592048E-001	0
1.504673376394366E+004	-7.4530013E-002	-1.9594595E-001	0
1.505173376388312E+004	-7.4396394E-002	-1.9595233E-001	0
1.505673376382259E+004	-7.4243687E-002	-1.9596504E-001	0
1.506173376376205E+004	-7.4281864E-002	-1.9595869E-001	0
1.506673376370152E+004	-7.4320041E-002	-1.9596504E-001	0
1.506695496369885E+004	-7.4243687E-002	-1.9595869E-001	0