time/s	Ewe/V	I/mA	error	
1.214550119906945E+004	-4.0168930E-002	-9.7343731E-001	0
1.214550139906944E+004	-7.5447187E-002	-9.7970611E-001	0
1.214550159906945E+004	-8.8623971E-002	-9.7982705E-001	0
1.214550179906945E+004	-9.4941847E-002	-9.7990972E-001	0
1.214550199906944E+004	-9.8931074E-002	-9.7990340E-001	0
1.214550219906945E+004	-1.0177507E-001	-9.7990340E-001	0
1.214550239906946E+004	-1.0408463E-001	-9.7992253E-001	0
1.214550259906944E+004	-1.0624149E-001	-9.7994798E-001	0
1.214550279906944E+004	-1.0826474E-001	-9.7995430E-001	0
1.214550299906943E+004	-1.0998259E-001	-9.7994167E-001	0
1.214550319906944E+004	-1.1202492E-001	-9.7990340E-001	0
1.214550339906945E+004	-1.1347555E-001	-9.7990340E-001	0
1.214550359906943E+004	-1.1526975E-001	-9.7994798E-001	0
1.214550379906943E+004	-1.1696851E-001	-9.7990340E-001	0
1.214550399906942E+004	-1.1853366E-001	-9.7993523E-001	0
1.214550419906943E+004	-1.2011790E-001	-9.7999889E-001	0
1.214550439906941E+004	-1.2168306E-001	-9.7988433E-001	0
1.214550459906942E+004	-1.2303825E-001	-9.7986525E-001	0
1.214550479906941E+004	-1.2467975E-001	-9.7992891E-001	0
1.214550499906941E+004	-1.2616855E-001	-9.7989696E-001	0
1.214550519906942E+004	-1.2771462E-001	-9.7987789E-001	0
1.214550539906940E+004	-1.2922251E-001	-9.7990340E-001	0
1.214550559906941E+004	-1.3065405E-001	-9.7994798E-001	0
1.214550579906940E+004	-1.3214286E-001	-9.7992253E-001	0
1.214550599906940E+004	-1.3355531E-001	-9.7989696E-001	0
1.214550619906941E+004	-1.3477689E-001	-9.7989696E-001	0
1.214550639906939E+004	-1.3622753E-001	-9.7994167E-001	0
1.214550659906938E+004	-1.3756363E-001	-9.7994798E-001	0
1.214550679906938E+004	-1.3901426E-001	-9.7993523E-001	0
1.214550699906937E+004	-1.4048398E-001	-9.7991616E-001	0
1.214550719906937E+004	-1.4164831E-001	-9.7996074E-001	0
1.214550739906938E+004	-1.4298441E-001	-9.7993523E-001	0
1.214550759906937E+004	-1.4433961E-001	-9.7994798E-001	0
1.214550779906937E+004	-1.4565662E-001	-9.7996074E-001	0
1.214550799906936E+004	-1.4701182E-001	-9.7992891E-001	0
1.214550819906936E+004	-1.4834791E-001	-9.7990972E-001	0
1.214550839906937E+004	-1.4958858E-001	-9.7986525E-001	0
1.214550859906936E+004	-1.5088652E-001	-9.7989696E-001	0
1.214550879906936E+004	-1.5220354E-001	-9.7997981E-001	0
1.214550899906935E+004	-1.5331060E-001	-9.7994167E-001	0
1.214550919906935E+004	-1.5449400E-001	-9.7993523E-001	0
1.214550939906936E+004	-1.5600190E-001	-9.7994167E-001	0
1.214550959906935E+004	-1.5701352E-001	-9.7994167E-001	0
1.214550979906935E+004	-1.5825419E-001	-9.7989696E-001	0
1.214550999906934E+004	-1.5959030E-001	-9.7992253E-001	0
1.214551019906934E+004	-1.6077371E-001	-9.7989696E-001	0
1.214551039906935E+004	-1.6193803E-001	-9.7997338E-001	0
1.214551059906934E+004	-1.6315961E-001	-9.7986525E-001	0
1.214551079906934E+004	-1.6428576E-001	-9.7992891E-001	0
1.214551099906935E+004	-1.6545008E-001	-9.7994167E-001	0
1.214551119906935E+004	-1.6667166E-001	-9.7992253E-001	0
1.214551139906934E+004	-1.6787416E-001	-9.7996706E-001	0
1.214551159906933E+004	-1.6888578E-001	-9.7996706E-001	0
1.214551179906933E+004	-1.7005010E-001	-9.7995430E-001	0
1.214551199906933E+004	-1.7119534E-001	-9.7992891E-001	0
1.214551219906934E+004	-1.7235966E-001	-9.7997981E-001	0
1.214551239906932E+004	-1.7348580E-001	-9.7994798E-001	0
1.214551259906932E+004	-1.7468829E-001	-9.7990972E-001	0
1.214551299906932E+004	-1.7676881E-001	-9.7994167E-001	0
1.214551319906930E+004	-1.7793313E-001	-9.7990972E-001	0
1.214551339906931E+004	-1.7894475E-001	-9.7990972E-001	0
1.214551359906931E+004	-1.8022360E-001	-9.7991616E-001	0
1.214551399906931E+004	-1.8213232E-001	-9.7994167E-001	0
1.214551419906929E+004	-1.8329664E-001	-9.7995430E-001	0
1.214551439906930E+004	-1.8432735E-001	-9.7991616E-001	0
1.214551479906929E+004	-1.8640786E-001	-9.7994798E-001	0
1.214551499906930E+004	-1.8747674E-001	-9.7993523E-001	0
1.214551539906928E+004	-1.8942364E-001	-9.7997338E-001	0
1.214551559906927E+004	-1.9051161E-001	-9.7992891E-001	0
1.214551579906927E+004	-1.9159959E-001	-9.7994167E-001	0
1.214551619906927E+004	-1.9360375E-001	-9.7988433E-001	0
1.214551659906926E+004	-1.9534068E-001	-9.7989696E-001	0
1.214551679906926E+004	-1.9642866E-001	-9.8001158E-001	0
1.214551699906925E+004	-1.9745937E-001	-9.7987789E-001	0
1.214551739906926E+004	-1.9931082E-001	-9.7988433E-001	0
1.214551759906925E+004	-2.0034154E-001	-9.7991616E-001	0
1.214551799906924E+004	-2.0217392E-001	-9.7994167E-001	0
1.214551839906925E+004	-2.0404446E-001	-9.7993523E-001	0
1.214551879906925E+004	-2.0591502E-001	-9.7994798E-001	0
1.214551919906924E+004	-2.0784283E-001	-9.7992891E-001	0
1.214551959906923E+004	-2.0956068E-001	-9.7993523E-001	0
1.214551999906925E+004	-2.1141213E-001	-9.7995430E-001	0
1.214552039906922E+004	-2.1311089E-001	-9.7996074E-001	0
1.214552079906923E+004	-2.1496236E-001	-9.7996074E-001	0
1.214552119906922E+004	-2.1660386E-001	-9.7997338E-001	0
1.214552159906921E+004	-2.1824536E-001	-9.7989696E-001	0
1.214552199906920E+004	-2.2003956E-001	-9.7994167E-001	0
1.214552239906920E+004	-2.2156654E-001	-9.7993523E-001	0
1.214552279906921E+004	-2.2336075E-001	-9.7998613E-001	0
1.214552319906918E+004	-2.2496407E-001	-9.7996706E-001	0
1.214552359906917E+004	-2.2656740E-001	-9.7996706E-001	0
1.214552399906918E+004	-2.2824708E-001	-9.7992891E-001	0
1.214552439906917E+004	-2.2971679E-001	-9.7991616E-001	0
1.214552479906916E+004	-2.3133920E-001	-9.7994798E-001	0
1.214552519906916E+004	-2.3296162E-001	-9.7994167E-001	0
1.214552559906915E+004	-2.3431681E-001	-9.7998613E-001	0
1.214552599906916E+004	-2.3595832E-001	-9.7991616E-001	0
1.214552639906915E+004	-2.3737077E-001	-9.7992891E-001	0
1.214552679906914E+004	-2.3884049E-001	-9.7996074E-001	0
1.214552719906914E+004	-2.4040563E-001	-9.7997338E-001	0
1.214552759906914E+004	-2.4187535E-001	-9.7997338E-001	0
1.214552799906913E+004	-2.4330691E-001	-9.7992253E-001	0
1.214552839906912E+004	-2.4464300E-001	-9.7989696E-001	0
1.214552879906914E+004	-2.4615090E-001	-9.7999889E-001	0
1.214552919906912E+004	-2.4739157E-001	-9.7997981E-001	0
1.214552959906912E+004	-2.4889946E-001	-9.7987789E-001	0
1.214552999906911E+004	-2.5008285E-001	-9.8003709E-001	0
1.214553039906910E+004	-2.5151441E-001	-9.7990972E-001	0
1.214553079906909E+004	-2.5288868E-001	-9.7999251E-001	0
1.214553119906910E+004	-2.5420570E-001	-9.8002434E-001	0
1.214553159906910E+004	-2.5548455E-001	-9.7994167E-001	0
1.214553199906908E+004	-2.5678247E-001	-9.7992253E-001	0
1.214553239906907E+004	-2.5819492E-001	-9.7998613E-001	0
1.214553279906907E+004	-2.5937834E-001	-9.7992253E-001	0
1.214553319906906E+004	-2.6061901E-001	-9.7993523E-001	0
1.214553359906905E+004	-2.6178333E-001	-9.7996074E-001	0
1.214553399906906E+004	-2.6300493E-001	-9.7994167E-001	0
1.214553439906905E+004	-2.6418832E-001	-9.7994798E-001	0
1.214553479906905E+004	-2.6556259E-001	-9.7998613E-001	0
1.214553539906903E+004	-2.6712775E-001	-9.7996074E-001	0
1.214553579906904E+004	-2.6834935E-001	-9.7992253E-001	0
1.214553619906903E+004	-2.6949456E-001	-9.7989696E-001	0
1.214553659906905E+004	-2.7077341E-001	-9.7998613E-001	0
1.214553699906902E+004	-2.7180412E-001	-9.7996074E-001	0
1.214553739906903E+004	-2.7302572E-001	-9.7989064E-001	0
1.214553799906901E+004	-2.7457178E-001	-9.7997338E-001	0
1.214553839906902E+004	-2.7577427E-001	-9.7999889E-001	0
1.214553879906901E+004	-2.7684316E-001	-9.7996074E-001	0
1.214553919906900E+004	-2.7787387E-001	-9.7996074E-001	0
1.214553959906899E+004	-2.7890459E-001	-9.7995430E-001	0
1.214553999906898E+004	-2.7999255E-001	-9.7990972E-001	0
1.214554059906898E+004	-2.8155771E-001	-9.7989696E-001	0
1.214554119906896E+004	-2.8308469E-001	-9.7988433E-001	0
1.214554179906896E+004	-2.8453532E-001	-9.7994798E-001	0
1.214554239906895E+004	-2.8606230E-001	-9.7996074E-001	0
1.214554279906895E+004	-2.8709301E-001	-9.7992891E-001	0
1.214554339906893E+004	-2.8852454E-001	-9.7996074E-001	0
1.214554399906893E+004	-2.8986067E-001	-9.7996074E-001	0
1.214554459906893E+004	-2.9138762E-001	-9.7996706E-001	0
1.214554519906893E+004	-2.9280010E-001	-9.7995430E-001	0
1.214554579906892E+004	-2.9405984E-001	-9.7999251E-001	0
1.214554639906890E+004	-2.9547229E-001	-9.7991616E-001	0
1.214554699906890E+004	-2.9680839E-001	-9.7995430E-001	0
1.214554759906890E+004	-2.9808724E-001	-9.7991616E-001	0
1.214554819906890E+004	-2.9936609E-001	-9.7996706E-001	0
1.214554879906887E+004	-3.0056858E-001	-9.7998613E-001	0
1.214554939906887E+004	-3.0190471E-001	-9.8000526E-001	0
1.214554999906886E+004	-3.0304992E-001	-9.7998613E-001	0
1.214555059906885E+004	-3.0430970E-001	-9.7996074E-001	0
1.214555119906884E+004	-3.0547401E-001	-9.8003066E-001	0
1.214555179906884E+004	-3.0661926E-001	-9.7992253E-001	0
1.214555239906884E+004	-3.0789807E-001	-9.7999889E-001	0
1.214555299906884E+004	-3.0892879E-001	-9.7994167E-001	0
1.214555359906882E+004	-3.1005496E-001	-9.7992253E-001	0
1.214555419906884E+004	-3.1125745E-001	-9.7990340E-001	0
1.214555479906881E+004	-3.1230724E-001	-9.8000526E-001	0
1.214555539906881E+004	-3.1341431E-001	-9.7996706E-001	0
1.214555599906881E+004	-3.1442592E-001	-9.7996706E-001	0
1.214555659906878E+004	-3.1553298E-001	-9.8004341E-001	0
1.214555719906877E+004	-3.1656370E-001	-9.7992253E-001	0
1.214555799906875E+004	-3.1776619E-001	-9.7987789E-001	0
1.214555859906875E+004	-3.1889233E-001	-9.7989696E-001	0
1.214555919906875E+004	-3.1992304E-001	-9.7999251E-001	0
1.214555999906873E+004	-3.2114464E-001	-9.7991616E-001	0
1.214556059906873E+004	-3.2225168E-001	-9.7994167E-001	0
1.214556139906873E+004	-3.2337782E-001	-9.7994798E-001	0
1.214556219906872E+004	-3.2459942E-001	-9.7993523E-001	0
1.214556279906872E+004	-3.2561103E-001	-9.7996074E-001	0
1.214556359906870E+004	-3.2675627E-001	-9.7992253E-001	0
1.214556439906869E+004	-3.2780609E-001	-9.7996706E-001	0
1.214556519906867E+004	-3.2910401E-001	-9.7992891E-001	0
1.214556599906867E+004	-3.3019197E-001	-9.7990972E-001	0
1.214556679906865E+004	-3.3124179E-001	-9.7996074E-001	0
1.214556759906864E+004	-3.3229157E-001	-9.7997338E-001	0
1.214556859906863E+004	-3.3347496E-001	-9.7990972E-001	0
1.214556939906863E+004	-3.3458203E-001	-9.7994798E-001	0
1.214557039906862E+004	-3.3574635E-001	-9.7995430E-001	0
1.214557119906861E+004	-3.3679616E-001	-9.7998613E-001	0
1.214557219906860E+004	-3.3790320E-001	-9.7998613E-001	0
1.214557299906858E+004	-3.3893391E-001	-9.7990972E-001	0
1.214557419906856E+004	-3.4009826E-001	-9.8001802E-001	0
1.214557519906855E+004	-3.4124348E-001	-9.7997338E-001	0
1.214557619906854E+004	-3.4236962E-001	-9.7988433E-001	0
1.214557739906854E+004	-3.4343851E-001	-9.7997338E-001	0
1.214557839906853E+004	-3.4458375E-001	-9.7993523E-001	0
1.214557959906850E+004	-3.4561446E-001	-9.7987789E-001	0
1.214558079906850E+004	-3.4664518E-001	-9.7990972E-001	0
1.214558199906847E+004	-3.4767589E-001	-9.7996706E-001	0
1.214558339906845E+004	-3.4880203E-001	-9.7992891E-001	0
1.214558479906844E+004	-3.4990910E-001	-9.7994167E-001	0
1.214558619906844E+004	-3.5092071E-001	-9.7997981E-001	0
1.214558779906841E+004	-3.5193235E-001	-9.7995430E-001	0
1.214558939906838E+004	-3.5298213E-001	-9.7994798E-001	0
1.214559119906835E+004	-3.5416552E-001	-9.7992891E-001	0
1.214559359906834E+004	-3.5536805E-001	-9.7998613E-001	0
1.214559619906830E+004	-3.5657054E-001	-9.7996074E-001	0
1.214559939906826E+004	-3.5762033E-001	-9.7991616E-001	0
1.214560279906823E+004	-3.5868922E-001	-9.7994798E-001	0
1.214560979906813E+004	-3.5971993E-001	-9.7995430E-001	0
1.214562199906800E+004	-3.5870829E-001	-9.7994798E-001	0
1.214562679906793E+004	-3.5767758E-001	-9.8003709E-001	0
1.214563099906789E+004	-3.5651326E-001	-9.7993523E-001	0
1.214563419906783E+004	-3.5544437E-001	-9.7996074E-001	0
1.214563719906783E+004	-3.5441366E-001	-9.7995430E-001	0
1.214563999906779E+004	-3.5330662E-001	-9.7996074E-001	0
1.214564259906774E+004	-3.5229498E-001	-9.7997981E-001	0
1.214564499906774E+004	-3.5126427E-001	-9.7997981E-001	0
1.214564719906769E+004	-3.5017630E-001	-9.8000526E-001	0
1.214564999906765E+004	-3.4905016E-001	-9.7997338E-001	0
1.214565239906762E+004	-3.4784767E-001	-9.8000526E-001	0
1.214565499906760E+004	-3.4675971E-001	-9.7994798E-001	0
1.214565739906755E+004	-3.4572899E-001	-9.7994167E-001	0
1.214565959906753E+004	-3.4471735E-001	-9.7996706E-001	0
1.214566179906752E+004	-3.4355304E-001	-9.7992253E-001	0
1.214566439906749E+004	-3.4242690E-001	-9.7994798E-001	0
1.214566639906744E+004	-3.4133893E-001	-9.8005617E-001	0
1.214566899906742E+004	-3.4019369E-001	-9.7989696E-001	0
1.214567119906741E+004	-3.3914387E-001	-9.7994167E-001	0
1.214567339906737E+004	-3.3813226E-001	-9.7991616E-001	0
1.214567599906733E+004	-3.3700612E-001	-9.7992253E-001	0
1.214567839906731E+004	-3.3599448E-001	-9.8000526E-001	0
1.214568059906729E+004	-3.3488744E-001	-9.7994798E-001	0
1.214568299906724E+004	-3.3387581E-001	-9.7994167E-001	0
1.214568559906722E+004	-3.3274966E-001	-9.7995430E-001	0
1.214568799906719E+004	-3.3173805E-001	-9.7992253E-001	0
1.214569059906715E+004	-3.3061188E-001	-9.7996706E-001	0
1.214569319906713E+004	-3.2958117E-001	-9.7999889E-001	0
1.214569559906711E+004	-3.2851231E-001	-9.7994167E-001	0
1.214569839906706E+004	-3.2744342E-001	-9.7999889E-001	0
1.214570099906703E+004	-3.2643178E-001	-9.7995430E-001	0
1.214570359906703E+004	-3.2542017E-001	-9.7992891E-001	0
1.214570639906698E+004	-3.2435128E-001	-9.7993523E-001	0
1.214570919906693E+004	-3.2330149E-001	-9.7994798E-001	0
1.214571199906690E+004	-3.2223260E-001	-9.7994798E-001	0
1.214571539906686E+004	-3.2118279E-001	-9.8001158E-001	0
1.214571839906683E+004	-3.2013300E-001	-9.7994798E-001	0
1.214572119906679E+004	-3.1908321E-001	-9.7992891E-001	0
1.214572479906674E+004	-3.1807157E-001	-9.7997981E-001	0
1.214572799906673E+004	-3.1700268E-001	-9.8000526E-001	0
1.214573179906668E+004	-3.1587654E-001	-9.8002434E-001	0
1.214573539906662E+004	-3.1486493E-001	-9.7995430E-001	0
1.214573859906659E+004	-3.1373879E-001	-9.7997338E-001	0
1.214574299906653E+004	-3.1272715E-001	-9.7990340E-001	0
1.214574699906648E+004	-3.1158191E-001	-9.7995430E-001	0
1.214575079906643E+004	-3.1057030E-001	-9.7989696E-001	0
1.214575539906637E+004	-3.0952051E-001	-9.7996706E-001	0
1.214575979906632E+004	-3.0847070E-001	-9.7997981E-001	0
1.214576499906628E+004	-3.0736366E-001	-9.7987789E-001	0
1.214576979906621E+004	-3.0627567E-001	-9.7999889E-001	0
1.214577559906612E+004	-3.0518770E-001	-9.7996074E-001	0
1.214578079906607E+004	-3.0415699E-001	-9.7999251E-001	0
1.214578619906600E+004	-3.0308810E-001	-9.7997338E-001	0
1.214579259906593E+004	-3.0205739E-001	-9.7991616E-001	0
1.214579899906584E+004	-3.0098850E-001	-9.7992891E-001	0
1.214580579906577E+004	-2.9990053E-001	-9.7996074E-001	0
1.214581379906568E+004	-2.9886982E-001	-9.7994798E-001	0
1.214582139906558E+004	-2.9776278E-001	-9.7999251E-001	0
1.214582959906547E+004	-2.9669389E-001	-9.7988433E-001	0
1.214583999906536E+004	-2.9556772E-001	-9.7992891E-001	0
1.214584939906524E+004	-2.9449886E-001	-9.7995430E-001	0
1.214586119906510E+004	-2.9348722E-001	-9.7994798E-001	0
1.214587419906493E+004	-2.9245651E-001	-9.7999889E-001	0
1.214588799906478E+004	-2.9136854E-001	-9.7994798E-001	0
1.214590399906458E+004	-2.9035693E-001	-9.7999251E-001	0
1.214592259906436E+004	-2.8934529E-001	-9.8003066E-001	0
1.214594439906409E+004	-2.8829551E-001	-9.7997338E-001	0
1.214597339906373E+004	-2.8722662E-001	-9.7994798E-001	0
1.214601839906319E+004	-2.8617683E-001	-9.7990340E-001	0
1.214613739906176E+004	-2.8516519E-001	-9.7990972E-001	0
1.214634399905926E+004	-2.8617683E-001	-9.7997338E-001	0
1.214647979905762E+004	-2.8718844E-001	-9.7998613E-001	0
1.214661499905596E+004	-2.8820005E-001	-9.7996706E-001	0
1.214677979905397E+004	-2.8921169E-001	-9.7999251E-001	0
1.214700239905130E+004	-2.9022330E-001	-9.8000526E-001	0
1.214740739904637E+004	-2.9123494E-001	-9.7995430E-001	0
1.214852299903287E+004	-2.9022330E-001	-9.7997981E-001	0
1.214916959902504E+004	-2.8919259E-001	-9.7993523E-001	0
1.214989939901620E+004	-2.8810462E-001	-9.7999251E-001	0
1.215091979900385E+004	-2.8707391E-001	-9.7993523E-001	0
1.215540079894959E+004	-2.8810462E-001	-9.7997338E-001	0
1.215681099893255E+004	-2.8913534E-001	-9.7998613E-001	0
1.215802059891788E+004	-2.9024240E-001	-9.7997981E-001	0
1.215918619890377E+004	-2.9127312E-001	-9.7994167E-001	0
1.216034379888975E+004	-2.9230383E-001	-9.7996706E-001	0
1.216144979887636E+004	-2.9333451E-001	-9.7996706E-001	0
1.216258739886261E+004	-2.9434615E-001	-9.7995430E-001	0
1.216371199884897E+004	-2.9539594E-001	-9.8001158E-001	0
1.216485579883514E+004	-2.9640758E-001	-9.7995430E-001	0
1.216624799881827E+004	-2.9745737E-001	-9.7992891E-001	0
1.216758179880212E+004	-2.9848808E-001	-9.8001158E-001	0
1.216901239878481E+004	-2.9951879E-001	-9.7997338E-001	0
1.217057659876585E+004	-3.0053040E-001	-9.7997338E-001	0
1.217226179874546E+004	-3.0156112E-001	-9.7994167E-001	0
1.217418079872223E+004	-3.0263001E-001	-9.7998613E-001	0
1.217645259869474E+004	-3.0364165E-001	-9.7991616E-001	0
1.217874639866696E+004	-3.0465326E-001	-9.7999251E-001	0
1.218194379862823E+004	-3.0568397E-001	-9.7994167E-001	0
1.218588839858049E+004	-3.0669558E-001	-9.8004979E-001	0
1.219088839851995E+004	-3.0751634E-001	-9.7996074E-001	0
1.219588839845941E+004	-3.0782175E-001	-9.7995430E-001	0
1.220088839839888E+004	-3.0791718E-001	-9.7994167E-001	0
1.220588839833834E+004	-3.0793625E-001	-9.7993523E-001	0
1.221088839827781E+004	-3.0785993E-001	-9.8003066E-001	0
1.221588839821727E+004	-3.0791718E-001	-9.7991616E-001	0
1.222088839815673E+004	-3.0785993E-001	-9.8002434E-001	0
1.222588839809620E+004	-3.0766904E-001	-9.7997338E-001	0
1.223088839803566E+004	-3.0724913E-001	-9.8001158E-001	0
1.223588839797513E+004	-3.0698189E-001	-9.7999251E-001	0
1.224088839791459E+004	-3.0690554E-001	-9.8001802E-001	0
1.224588839785405E+004	-3.0650473E-001	-9.7995430E-001	0
1.225088839779352E+004	-3.0610389E-001	-9.7997981E-001	0
1.225588839773298E+004	-3.0556944E-001	-9.7999889E-001	0
1.226088839767245E+004	-3.0490139E-001	-9.7996706E-001	0
1.226588839761191E+004	-3.0467233E-001	-9.8004979E-001	0
1.227088839755137E+004	-3.0434787E-001	-9.7993523E-001	0
1.227588839749084E+004	-3.0400428E-001	-9.7996706E-001	0
1.228088839743030E+004	-3.0364165E-001	-9.7999251E-001	0
1.228588839736977E+004	-3.0322170E-001	-9.7994167E-001	0
1.229088839730923E+004	-3.0264911E-001	-9.7996074E-001	0
1.229588839724869E+004	-3.0247730E-001	-9.7989064E-001	0
1.230088839718816E+004	-3.0190471E-001	-9.8003066E-001	0
1.230588839712762E+004	-3.0144662E-001	-9.7996706E-001	0
1.231088839706709E+004	-3.0098850E-001	-9.7995430E-001	0
1.231588839700655E+004	-3.0054951E-001	-9.8001158E-001	0
1.232088839694601E+004	-3.0011049E-001	-9.8001802E-001	0
1.232588839688548E+004	-2.9948062E-001	-9.8001158E-001	0
1.233088839682494E+004	-2.9902253E-001	-9.7997338E-001	0
1.233588839676441E+004	-2.9860261E-001	-9.7998613E-001	0
1.234088839670387E+004	-2.9793456E-001	-9.8000526E-001	0
1.234588839664334E+004	-2.9741919E-001	-9.8005617E-001	0
1.235088839658280E+004	-2.9709470E-001	-9.8004979E-001	0
1.235588839652226E+004	-2.9642665E-001	-9.7990972E-001	0
1.236088839646173E+004	-2.9596856E-001	-9.7994798E-001	0
1.236588839640119E+004	-2.9549140E-001	-9.7999251E-001	0
1.237088839634066E+004	-2.9503331E-001	-9.7998613E-001	0
1.237588839628012E+004	-2.9465154E-001	-9.7998613E-001	0
1.238088839621958E+004	-2.9384989E-001	-9.7996706E-001	0
1.238588839615905E+004	-2.9329637E-001	-9.8001802E-001	0
1.239088839609851E+004	-2.9291460E-001	-9.7992891E-001	0
1.239588839603798E+004	-2.9251379E-001	-9.8004979E-001	0
1.240088839597744E+004	-2.9199842E-001	-9.8000526E-001	0
1.240588839591690E+004	-2.9142579E-001	-9.8003066E-001	0
1.241088839585637E+004	-2.9075775E-001	-9.8001158E-001	0
1.241588839579583E+004	-2.9022330E-001	-9.7998613E-001	0
1.242088839573530E+004	-2.8966978E-001	-9.8000526E-001	0
1.242588839567476E+004	-2.8909716E-001	-9.8002434E-001	0
1.243088839561422E+004	-2.8854364E-001	-9.8002434E-001	0
1.243588839555369E+004	-2.8793284E-001	-9.7999889E-001	0
1.244088839549315E+004	-2.8722662E-001	-9.8003066E-001	0
1.244588839543262E+004	-2.8671125E-001	-9.8000526E-001	0
1.245088839537208E+004	-2.8598595E-001	-9.7999251E-001	0
1.245588839531154E+004	-2.8550875E-001	-9.7994167E-001	0
1.246088839525101E+004	-2.8482163E-001	-9.7997981E-001	0
1.246550639519509E+004	-2.8380999E-001	-9.7996074E-001	0
1.247050639513455E+004	-2.8325647E-001	-9.8007524E-001	0
1.247543539507488E+004	-2.8224486E-001	-9.8001802E-001	0
1.248043539501434E+004	-2.8150046E-001	-9.7998613E-001	0
1.248408279497018E+004	-2.8046975E-001	-9.7996706E-001	0
1.248861979491526E+004	-2.7945811E-001	-9.8003709E-001	0
1.249222759487157E+004	-2.7842739E-001	-9.8004341E-001	0
1.249561559483054E+004	-2.7739668E-001	-9.7996706E-001	0
1.249865499479376E+004	-2.7638507E-001	-9.7994798E-001	0
1.249976199478036E+004	-2.7396098E-001	-9.8000526E-001	0
1.249976219478037E+004	-2.7207136E-001	-9.8001802E-001	0
1.249976579478029E+004	-2.7100247E-001	-9.7994798E-001	0
1.249984819477930E+004	-2.7209044E-001	-9.7999251E-001	0
1.249986019477916E+004	-2.6838753E-001	-9.8001158E-001	0
1.249986099477916E+004	-2.6726136E-001	-9.7997338E-001	0
1.249987379477899E+004	-2.6624975E-001	-9.8001802E-001	0
1.249991359477851E+004	-2.6728046E-001	-9.7994167E-001	0
1.249991879477845E+004	-2.6518086E-001	-9.7999251E-001	0
1.249991919477846E+004	-2.6416925E-001	-9.7999889E-001	0
1.249993299477827E+004	-2.6122981E-001	-9.7997981E-001	0
1.249993559477825E+004	-2.6019910E-001	-9.8002434E-001	0
1.249993879477822E+004	-2.5792772E-001	-9.7998613E-001	0
1.249993899477820E+004	-2.5599989E-001	-9.8004341E-001	0
1.249993979477821E+004	-2.5477833E-001	-9.7999251E-001	0
1.249994699477812E+004	-2.5374761E-001	-9.7998613E-001	0
1.249996859477785E+004	-2.5475922E-001	-9.8003066E-001	0
1.249997519477777E+004	-2.5590447E-001	-9.7999889E-001	0
1.249997759477774E+004	-2.5697336E-001	-9.7998613E-001	0
1.249997839477773E+004	-2.5821403E-001	-9.7999889E-001	0
1.249997899477775E+004	-2.5941652E-001	-9.8000526E-001	0
1.249997919477773E+004	-2.6159245E-001	-9.7997981E-001	0
1.249997979477773E+004	-2.6264226E-001	-9.7992253E-001	0
1.249998079477772E+004	-2.6382565E-001	-9.8004341E-001	0
1.249998199477769E+004	-2.6487547E-001	-9.7994798E-001	0
1.249998439477765E+004	-2.6145884E-001	-9.8001802E-001	0
1.249998639477763E+004	-2.6040906E-001	-9.8001158E-001	0
1.249999099477757E+004	-2.5878665E-001	-9.7994798E-001	0
1.249999179477757E+004	-2.5773683E-001	-9.7999889E-001	0
1.249999619477752E+004	-2.5672522E-001	-9.8005617E-001	0
1.250000779477737E+004	-2.5554180E-001	-9.7996706E-001	0
1.250001799477724E+004	-2.5453019E-001	-9.8002434E-001	0
1.250002759477714E+004	-2.5556090E-001	-9.7998613E-001	0
1.250003699477702E+004	-2.5661069E-001	-9.7999251E-001	0
1.250004459477693E+004	-2.5771776E-001	-9.8003709E-001	0
1.250005019477685E+004	-2.5874847E-001	-9.7995430E-001	0
1.250005739477677E+004	-2.5979826E-001	-9.7999251E-001	0
1.250006619477666E+004	-2.6086715E-001	-9.7996074E-001	0
1.250007199477660E+004	-2.6189786E-001	-9.8002434E-001	0
1.250007559477654E+004	-2.6292858E-001	-9.8001802E-001	0
1.250008259477647E+004	-2.6399747E-001	-9.8001158E-001	0
1.250008419477644E+004	-2.6092440E-001	-9.8004341E-001	0
1.250008459477645E+004	-2.5966465E-001	-9.7997338E-001	0
1.250008999477638E+004	-2.5771776E-001	-9.8004979E-001	0
1.250009119477635E+004	-2.5666794E-001	-9.7996706E-001	0
1.250009919477627E+004	-2.5563726E-001	-9.7997338E-001	0
1.250010919477615E+004	-2.5411028E-001	-9.7997981E-001	0
1.250010939477614E+004	-2.5244969E-001	-9.8000526E-001	0
1.250011159477613E+004	-2.5130445E-001	-9.7992891E-001	0
1.250012479477595E+004	-2.5014013E-001	-9.7997981E-001	0
1.250013159477587E+004	-2.5117084E-001	-9.8001802E-001	0
1.250013719477583E+004	-2.5220156E-001	-9.8001802E-001	0
1.250013779477580E+004	-2.5468287E-001	-9.7991616E-001	0
1.250013819477579E+004	-2.5317499E-001	-9.8001158E-001	0
1.250014359477573E+004	-2.5420570E-001	-9.8004341E-001	0
1.250014499477574E+004	-2.5523642E-001	-9.8000526E-001	0
1.250014659477570E+004	-2.5626713E-001	-9.7999889E-001	0
1.250015599477559E+004	-2.5517914E-001	-9.7997338E-001	0
1.250015939477553E+004	-2.5357583E-001	-9.7999251E-001	0
1.250016299477550E+004	-2.5233516E-001	-9.7999889E-001	0
1.250017779477531E+004	-2.5023556E-001	-9.8012614E-001	0
1.250017799477532E+004	-2.4634176E-001	-9.7999251E-001	0
1.250017839477531E+004	-2.4502476E-001	-9.7997981E-001	0
1.250018059477529E+004	-2.4386042E-001	-9.7996074E-001	0
1.250021519477488E+004	-2.4491023E-001	-9.7999889E-001	0
1.250021859477482E+004	-2.4311602E-001	-9.8001802E-001	0
1.250022159477479E+004	-2.4202806E-001	-9.8000526E-001	0
1.250022999477468E+004	-2.4319237E-001	-9.7999889E-001	0
1.250023619477461E+004	-2.4475753E-001	-9.8001802E-001	0
1.250023719477460E+004	-2.4330691E-001	-9.8006248E-001	0
1.250023739477459E+004	-2.4151270E-001	-9.7998613E-001	0
1.250023859477459E+004	-2.4017659E-001	-9.8000526E-001	0
1.250027159477418E+004	-2.4122639E-001	-9.8004341E-001	0
1.250027359477415E+004	-2.3996663E-001	-9.7997981E-001	0
1.250027399477415E+004	-2.3861144E-001	-9.8002434E-001	0
1.250028539477401E+004	-2.3962307E-001	-9.8001158E-001	0
1.250029079477394E+004	-2.4069194E-001	-9.7994798E-001	0
1.250029919477383E+004	-2.4176084E-001	-9.7997338E-001	0
1.250030819477374E+004	-2.4277246E-001	-9.7992891E-001	0
1.250031119477371E+004	-2.4145544E-001	-9.8002434E-001	0
1.250031159477370E+004	-2.4023385E-001	-9.7993523E-001	0
1.250032319477356E+004	-2.4126457E-001	-9.7996074E-001	0
1.250033059477346E+004	-2.4237162E-001	-9.7994798E-001	0
1.250033859477338E+004	-2.4097826E-001	-9.8006248E-001	0
1.250034219477332E+004	-2.3981394E-001	-9.7998613E-001	0
1.250034799477327E+004	-2.4084465E-001	-9.8001802E-001	0
1.250035839477312E+004	-2.4197079E-001	-9.7997981E-001	0
1.250036379477306E+004	-2.4307786E-001	-9.8000526E-001	0
1.250037039477300E+004	-2.4418491E-001	-9.7994167E-001	0
1.250037099477298E+004	-2.4252433E-001	-9.7999889E-001	0
1.250037159477297E+004	-2.4149361E-001	-9.8001802E-001	0
1.250038599477281E+004	-2.4250524E-001	-9.7999889E-001	0
1.250040879477252E+004	-2.4132183E-001	-9.7994798E-001	0
1.250040899477252E+004	-2.3842058E-001	-9.8004341E-001	0
1.250040999477250E+004	-2.3735169E-001	-9.7996074E-001	0
1.250043819477217E+004	-2.3838240E-001	-9.7997981E-001	0
1.250045139477200E+004	-2.3943219E-001	-9.7998613E-001	0
1.250045319477198E+004	-2.3824878E-001	-9.7996074E-001	0
1.250046719477180E+004	-2.3580562E-001	-9.8001802E-001	0
1.250046899477180E+004	-2.3477490E-001	-9.8003709E-001	0
1.250048019477166E+004	-2.3305705E-001	-9.7998613E-001	0
1.250049659477145E+004	-2.3408777E-001	-9.8003066E-001	0
1.250050259477139E+004	-2.3513757E-001	-9.7996706E-001	0
1.250050679477133E+004	-2.3624462E-001	-9.7999251E-001	0
1.250051559477122E+004	-2.3519483E-001	-9.8003709E-001	0
1.250051579477121E+004	-2.3391598E-001	-9.8000526E-001	0
1.250051619477122E+004	-2.3006035E-001	-9.8001802E-001	0
1.250051639477121E+004	-2.2746450E-001	-9.8002434E-001	0
1.250051659477121E+004	-2.2603296E-001	-9.8000526E-001	0
1.250051739477120E+004	-2.2500224E-001	-9.8001158E-001	0
1.250052679477108E+004	-2.2397153E-001	-9.8000526E-001	0
1.250053699477097E+004	-2.2500224E-001	-9.7996074E-001	0
1.250055319477079E+004	-2.2612838E-001	-9.7996706E-001	0
1.250055779477071E+004	-2.2721636E-001	-9.7996074E-001	0
1.250056419477065E+004	-2.2824708E-001	-9.7997338E-001	0
1.250056959477058E+004	-2.2931595E-001	-9.8001158E-001	0
1.250057139477055E+004	-2.3099564E-001	-9.8002434E-001	0
1.250057419477051E+004	-2.3200727E-001	-9.7999251E-001	0
1.250057819477047E+004	-2.3303796E-001	-9.7999251E-001	0
1.250058359477040E+004	-2.3406868E-001	-9.8002434E-001	0
1.250058819477036E+004	-2.3509939E-001	-9.7997981E-001	0
1.250059539477027E+004	-2.3632097E-001	-9.7997981E-001	0
1.250059819477022E+004	-2.3737077E-001	-9.8003066E-001	0
1.250060499477014E+004	-2.3582470E-001	-9.8000526E-001	0
1.250060679477014E+004	-2.3450768E-001	-9.8001158E-001	0
1.250062479476990E+004	-2.3551930E-001	-9.8003709E-001	0
1.250063179476981E+004	-2.3658819E-001	-9.7999889E-001	0
1.250063859476974E+004	-2.3759982E-001	-9.7999889E-001	0
1.250063959476973E+004	-2.3588197E-001	-9.7992253E-001	0
1.250063979476973E+004	-2.3462221E-001	-9.7999889E-001	0
1.250064319476968E+004	-2.3351514E-001	-9.8001802E-001	0
1.250064759476963E+004	-2.3246536E-001	-9.8002434E-001	0
1.250065919476948E+004	-2.3385872E-001	-9.7995430E-001	0
1.250066659476940E+004	-2.3112924E-001	-9.7994167E-001	0
1.250066859476938E+004	-2.3011762E-001	-9.7996706E-001	0
1.250068719476915E+004	-2.2902966E-001	-9.8001802E-001	0
1.250068739476915E+004	-2.2784624E-001	-9.8004979E-001	0
1.250070239476897E+004	-2.2931595E-001	-9.7998613E-001	0
1.250070779476890E+004	-2.3032758E-001	-9.8003709E-001	0
1.250071579476880E+004	-2.3133920E-001	-9.8001802E-001	0
1.250072059476875E+004	-2.3246536E-001	-9.7994798E-001	0
1.250072079476874E+004	-2.3380145E-001	-9.7997338E-001	0
1.250072139476874E+004	-2.3269440E-001	-9.7998613E-001	0
1.250073559476856E+004	-2.3164460E-001	-9.7994798E-001	0
1.250075039476837E+004	-2.3349607E-001	-9.7998613E-001	0
1.250075779476829E+004	-2.3450768E-001	-9.7999251E-001	0
1.250076179476824E+004	-2.3278983E-001	-9.7999251E-001	0
1.250076379476822E+004	-2.3170187E-001	-9.8002434E-001	0
1.250076539476820E+004	-2.3057571E-001	-9.7994167E-001	0
1.250077939476803E+004	-2.2818981E-001	-9.8000526E-001	0
1.250078299476799E+004	-2.2582300E-001	-9.8005617E-001	0
1.250078319476798E+004	-2.2441053E-001	-9.8004341E-001	0
1.250078739476795E+004	-2.2324622E-001	-9.7995430E-001	0
1.250079739476781E+004	-2.2210099E-001	-9.8003709E-001	0
1.250081739476757E+004	-2.2315079E-001	-9.7997981E-001	0
1.250083859476732E+004	-2.2194828E-001	-9.7997338E-001	0
1.250084439476725E+004	-2.2070761E-001	-9.7997981E-001	0
1.250084999476717E+004	-2.1969600E-001	-9.7999251E-001	0
1.250087619476685E+004	-2.1868438E-001	-9.7996706E-001	0
1.250088719476675E+004	-2.1969600E-001	-9.7995430E-001	0
1.250088799476673E+004	-2.2074579E-001	-9.7997338E-001	0
1.250089159476667E+004	-2.1939060E-001	-9.7997338E-001	0
1.250089999476657E+004	-2.2040223E-001	-9.7996706E-001	0
1.250091059476644E+004	-2.2143292E-001	-9.7996074E-001	0
1.250091779476636E+004	-2.2248273E-001	-9.8003709E-001	0
1.250092559476626E+004	-2.2349435E-001	-9.8000526E-001	0
1.250093439476615E+004	-2.2454415E-001	-9.7997338E-001	0
1.250094159476606E+004	-2.2557487E-001	-9.7999251E-001	0
1.250095459476591E+004	-2.2666283E-001	-9.7998613E-001	0
1.250096639476577E+004	-2.2773172E-001	-9.7999251E-001	0
1.250097739476564E+004	-2.2874334E-001	-9.7996706E-001	0
1.250098599476554E+004	-2.2975497E-001	-9.7997981E-001	0
1.250099319476544E+004	-2.3078568E-001	-9.7994167E-001	0
1.250100159476534E+004	-2.3185456E-001	-9.8006248E-001	0
1.250102139476511E+004	-2.3290436E-001	-9.7993523E-001	0
1.250102279476510E+004	-2.3183547E-001	-9.7996074E-001	0
1.250103639476493E+004	-2.3082384E-001	-9.7999889E-001	0
1.250104739476478E+004	-2.2881968E-001	-9.7995430E-001	0
1.250105439476471E+004	-2.2775081E-001	-9.8004341E-001	0
1.250106979476454E+004	-2.2878152E-001	-9.8001158E-001	0
1.250108479476433E+004	-2.2985040E-001	-9.7999251E-001	0
1.250109159476425E+004	-2.2832343E-001	-9.7996706E-001	0
1.250109859476416E+004	-2.2693005E-001	-9.8004341E-001	0
1.250111879476393E+004	-2.2796077E-001	-9.8003066E-001	0
1.250112239476389E+004	-2.2607113E-001	-9.8002434E-001	0
1.250112279476388E+004	-2.2502133E-001	-9.7999889E-001	0
1.250112999476379E+004	-2.2313170E-001	-9.8013252E-001	0
1.250113039476378E+004	-2.2204372E-001	-9.8000526E-001	0
1.250113399476373E+004	-2.2103210E-001	-9.7994798E-001	0
1.250115559476349E+004	-2.1961965E-001	-9.8003709E-001	0
1.250117139476328E+004	-2.2063127E-001	-9.8003066E-001	0
1.250117659476322E+004	-2.2170015E-001	-9.7995430E-001	0
1.250117779476321E+004	-2.2030678E-001	-9.8002434E-001	0
1.250118359476313E+004	-2.2131841E-001	-9.7997981E-001	0
1.250118639476311E+004	-2.2234912E-001	-9.8003709E-001	0
1.250119239476303E+004	-2.2129932E-001	-9.8000526E-001	0
1.250119499476301E+004	-2.1982960E-001	-9.8001802E-001	0
1.250119539476300E+004	-2.1866529E-001	-9.8001802E-001	0
1.250119579476301E+004	-2.1765366E-001	-9.8001158E-001	0
1.250119879476295E+004	-2.1545863E-001	-9.8001802E-001	0
1.250119959476293E+004	-2.1444701E-001	-9.8010701E-001	0
1.250120019476293E+004	-2.1330178E-001	-9.8001158E-001	0
1.250120179476292E+004	-2.1229015E-001	-9.8004979E-001	0
1.250120479476289E+004	-2.1347356E-001	-9.7999889E-001	0
1.250120519476288E+004	-2.1208018E-001	-9.7999889E-001	0
1.250120679476285E+004	-2.1356899E-001	-9.7991616E-001	0
1.250123019476258E+004	-2.1244285E-001	-9.7997981E-001	0
1.250123199476255E+004	-2.1106857E-001	-9.7997981E-001	0
1.250125979476221E+004	-2.0917892E-001	-9.7994798E-001	0
1.250126979476211E+004	-2.0742290E-001	-9.7997981E-001	0
1.250127319476205E+004	-2.0639220E-001	-9.7997981E-001	0
1.250128599476190E+004	-2.0742290E-001	-9.8004979E-001	0
1.250129119476183E+004	-2.0595318E-001	-9.7996706E-001	0
1.250129919476173E+004	-2.0488431E-001	-9.8000526E-001	0
1.250130899476161E+004	-2.0593409E-001	-9.8000526E-001	0
1.250131339476157E+004	-2.0700298E-001	-9.8001802E-001	0
1.250131659476152E+004	-2.0593409E-001	-9.8000526E-001	0
1.250133039476137E+004	-2.0694572E-001	-9.8001802E-001	0
1.250135319476109E+004	-2.0797643E-001	-9.8000526E-001	0
1.250135539476106E+004	-2.0633493E-001	-9.7998613E-001	0
1.250135639476105E+004	-2.0513244E-001	-9.8002434E-001	0
1.250136539476093E+004	-2.0616315E-001	-9.7999251E-001	0
1.250136799476091E+004	-2.0480795E-001	-9.7998613E-001	0
1.250136819476090E+004	-2.0328097E-001	-9.8001802E-001	0
1.250136919476089E+004	-2.0221210E-001	-9.8003709E-001	0
1.250137259476085E+004	-2.0112412E-001	-9.7998613E-001	0
1.250139059476063E+004	-2.0011249E-001	-9.7996706E-001	0
1.250139279476060E+004	-1.9841373E-001	-9.8004341E-001	0
1.250140739476042E+004	-1.9692492E-001	-9.8004341E-001	0
1.250142279476025E+004	-1.9579878E-001	-9.7997981E-001	0
1.250143079476015E+004	-1.9684857E-001	-9.8003066E-001	0
1.250143899476004E+004	-1.9786020E-001	-9.8004341E-001	0
1.250144399475999E+004	-1.9892909E-001	-9.7997981E-001	0
1.250144539475997E+004	-1.9703946E-001	-9.8000526E-001	0
1.250145279475988E+004	-1.9810833E-001	-9.7995430E-001	0
1.250146059475979E+004	-1.9702037E-001	-9.7994798E-001	0
1.250147039475967E+004	-1.9543612E-001	-9.7997338E-001	0
1.250147579475959E+004	-1.9427180E-001	-9.8003066E-001	0
1.250148519475949E+004	-1.9528343E-001	-9.8002434E-001	0
1.250149099475941E+004	-1.9633321E-001	-9.7996074E-001	0
1.250149679475935E+004	-1.9745937E-001	-9.7992891E-001	0
1.250149779475934E+004	-1.9900544E-001	-9.8000526E-001	0
1.250151439475914E+004	-2.0018885E-001	-9.7999251E-001	0
1.250151939475907E+004	-2.0121956E-001	-9.8002434E-001	0
1.250152639475898E+004	-2.0230752E-001	-9.8001158E-001	0
1.250153799475885E+004	-2.0047516E-001	-9.8001158E-001	0
1.250154959475870E+004	-2.0154403E-001	-9.7999889E-001	0
1.250155779475860E+004	-1.9971167E-001	-9.7999889E-001	0
1.250155799475859E+004	-1.9862369E-001	-9.8001802E-001	0
1.250156019475858E+004	-1.9759297E-001	-9.7997338E-001	0
1.250156299475854E+004	-1.9635230E-001	-9.7997981E-001	0
1.250156879475847E+004	-1.9520707E-001	-9.7999889E-001	0
1.250156999475847E+004	-1.9415727E-001	-9.8005617E-001	0
1.250158359475830E+004	-1.9530252E-001	-9.7997338E-001	0
1.250158699475825E+004	-1.9417636E-001	-9.8001158E-001	0
1.250158859475824E+004	-1.9287843E-001	-9.7999889E-001	0
1.250158979475823E+004	-1.9119875E-001	-9.8002434E-001	0
1.250159119475819E+004	-1.8959543E-001	-9.8001158E-001	0
1.250159139475820E+004	-1.8827841E-001	-9.8002434E-001	0
1.250159199475819E+004	-1.8686596E-001	-9.8006248E-001	0
1.250159559475815E+004	-1.8585433E-001	-9.8001802E-001	0
1.250161619475789E+004	-1.8386926E-001	-9.8000526E-001	0
1.250162219475783E+004	-1.8280037E-001	-9.8001158E-001	0
1.250162919475776E+004	-1.8165514E-001	-9.7996074E-001	0
1.250166079475736E+004	-1.8278128E-001	-9.7994167E-001	0
1.250166559475730E+004	-1.8381199E-001	-9.8003709E-001	0
1.250167419475719E+004	-1.8482362E-001	-9.7990340E-001	0
1.250167939475714E+004	-1.8604520E-001	-9.8000526E-001	0
1.250168599475708E+004	-1.8722861E-001	-9.7997981E-001	0
1.250169139475698E+004	-1.8829750E-001	-9.7993523E-001	0
1.250169839475691E+004	-1.8944272E-001	-9.7995430E-001	0
1.250170899475677E+004	-1.9056888E-001	-9.8000526E-001	0
1.250171839475667E+004	-1.9158050E-001	-9.8001158E-001	0
1.250173099475651E+004	-1.9261122E-001	-9.7997981E-001	0
1.250173819475643E+004	-1.9364192E-001	-9.8003066E-001	0
1.250173999475640E+004	-1.9253486E-001	-9.7999251E-001	0
1.250174119475638E+004	-1.9400458E-001	-9.8003709E-001	0
1.250174639475634E+004	-1.9503529E-001	-9.7997981E-001	0
1.250176119475617E+004	-1.9400458E-001	-9.7997981E-001	0
1.250178839475583E+004	-1.9276391E-001	-9.7997981E-001	0
1.250178859475581E+004	-1.9173320E-001	-9.7999251E-001	0
1.250179339475575E+004	-1.8972903E-001	-9.7999889E-001	0
1.250180599475562E+004	-1.8871741E-001	-9.8001158E-001	0
1.250182059475544E+004	-1.8734314E-001	-9.7998613E-001	0
1.250184059475518E+004	-1.8835476E-001	-9.8001802E-001	0
1.250184179475516E+004	-1.8938547E-001	-9.8000526E-001	0
1.250184499475514E+004	-1.9047344E-001	-9.7990972E-001	0
1.250186319475491E+004	-1.8867925E-001	-9.8007524E-001	0
1.250186419475490E+004	-1.8762945E-001	-9.7996706E-001	0
1.250189419475454E+004	-1.8654147E-001	-9.7999889E-001	0
1.250190319475443E+004	-1.8810663E-001	-9.7990340E-001	0
1.250190339475442E+004	-1.8915643E-001	-9.7994798E-001	0
1.250191259475434E+004	-1.9016804E-001	-9.8001158E-001	0
1.250192159475421E+004	-1.9121784E-001	-9.7998613E-001	0
1.250192619475414E+004	-1.9222946E-001	-9.8002434E-001	0
1.250193359475405E+004	-1.9335562E-001	-9.7998613E-001	0
1.250194079475396E+004	-1.9440541E-001	-9.7998613E-001	0
1.250194699475390E+004	-1.9551247E-001	-9.7995430E-001	0
1.250195679475377E+004	-1.9658135E-001	-9.7997981E-001	0
1.250196919475365E+004	-1.9766933E-001	-9.8004979E-001	0
1.250197099475362E+004	-1.9660044E-001	-9.7997981E-001	0
1.250197319475358E+004	-1.9553156E-001	-9.8000526E-001	0
1.250198879475339E+004	-1.9421454E-001	-9.7998613E-001	0
1.250199819475328E+004	-1.9280209E-001	-9.7998613E-001	0
1.250199979475325E+004	-1.9179046E-001	-9.8000526E-001	0
1.250201859475303E+004	-1.9285935E-001	-9.7999251E-001	0
1.250202499475295E+004	-1.9152324E-001	-9.8004341E-001	0
1.250202519475295E+004	-1.9028257E-001	-9.8003066E-001	0
1.250202619475294E+004	-1.8923277E-001	-9.7994798E-001	0
1.250203079475288E+004	-1.8799210E-001	-9.7999889E-001	0
1.250208699475220E+004	-1.8696138E-001	-9.7997338E-001	0
1.250211399475188E+004	-1.8797301E-001	-9.8001158E-001	0
1.250212359475176E+004	-1.8927094E-001	-9.7999889E-001	0
1.250212579475173E+004	-1.9028257E-001	-9.7990972E-001	0
1.250212599475172E+004	-1.8913734E-001	-9.8000526E-001	0
1.250213219475164E+004	-1.9018713E-001	-9.7998613E-001	0
1.250215459475140E+004	-1.8881285E-001	-9.8001158E-001	0
1.250215719475134E+004	-1.8780123E-001	-9.8001802E-001	0
1.250216459475126E+004	-1.8646513E-001	-9.8001802E-001	0
1.250219279475091E+004	-1.8764853E-001	-9.8001158E-001	0
1.250219719475087E+004	-1.8644604E-001	-9.8001158E-001	0
1.250220539475078E+004	-1.8474726E-001	-9.8003709E-001	0
1.250221719475061E+004	-1.8367839E-001	-9.8000526E-001	0
1.250224739475027E+004	-1.8052900E-001	-9.8003066E-001	0
1.250224759475025E+004	-1.7925015E-001	-9.7994798E-001	0
1.250225059475022E+004	-1.7814308E-001	-9.7998613E-001	0
1.250231959474940E+004	-1.7697877E-001	-9.7998613E-001	0
1.250237159474875E+004	-1.7806675E-001	-9.7999889E-001	0
1.250237979474866E+004	-1.7632981E-001	-9.8003709E-001	0
1.250238219474861E+004	-1.7531818E-001	-9.8006248E-001	0
1.250238279474861E+004	-1.7386755E-001	-9.7996706E-001	0
1.250239039474852E+004	-1.7281775E-001	-9.8002434E-001	0
1.250240019474841E+004	-1.7386755E-001	-9.7997338E-001	0
1.250241439474825E+004	-1.7487918E-001	-9.7994798E-001	0
1.250241799474819E+004	-1.7344762E-001	-9.7997981E-001	0
1.250241819474818E+004	-1.7241693E-001	-9.7987789E-001	0
1.250242439474812E+004	-1.7138621E-001	-9.7998613E-001	0
1.250243239474802E+004	-1.7285593E-001	-9.8000526E-001	0
1.250243879474796E+004	-1.7172977E-001	-9.7998613E-001	0
1.250244079474790E+004	-1.7058454E-001	-9.7997981E-001	0
1.250244659474786E+004	-1.6947748E-001	-9.8002434E-001	0
1.250244979474781E+004	-1.6846587E-001	-9.7999889E-001	0
1.250245919474769E+004	-1.6745424E-001	-9.7999251E-001	0
1.250248319474740E+004	-1.6848496E-001	-9.7996706E-001	0
1.250252459474689E+004	-1.6732062E-001	-9.7998613E-001	0
1.250253179474681E+004	-1.6630900E-001	-9.7996706E-001	0
1.250253359474678E+004	-1.6493472E-001	-9.8003709E-001	0
1.250253419474678E+004	-1.6388492E-001	-9.8003709E-001	0
1.250254259474669E+004	-1.6239612E-001	-9.7999889E-001	0
1.250257439474629E+004	-1.6126998E-001	-9.7996706E-001	0
1.250257659474626E+004	-1.5995295E-001	-9.7993523E-001	0
1.250265219474536E+004	-1.5884590E-001	-9.8006248E-001	0
1.250265719474529E+004	-1.5773883E-001	-9.7998613E-001	0
1.250266039474525E+004	-1.5672721E-001	-9.7997338E-001	0
1.250266959474515E+004	-1.5779610E-001	-9.7997338E-001	0
1.250268779474494E+004	-1.5678447E-001	-9.8006886E-001	0
1.250272419474449E+004	-1.5577285E-001	-9.8000526E-001	0
1.250273819474432E+004	-1.5678447E-001	-9.7998613E-001	0
1.250277079474393E+004	-1.5781519E-001	-9.8002434E-001	0
1.250278499474375E+004	-1.5894133E-001	-9.7997338E-001	0
1.250282319474329E+004	-1.5999113E-001	-9.7992891E-001	0
1.250285679474290E+004	-1.6102184E-001	-9.8001158E-001	0
1.250287619474264E+004	-1.5995295E-001	-9.7999889E-001	0
1.250298179474138E+004	-1.6098367E-001	-9.8005617E-001	0
1.250307419474024E+004	-1.6199529E-001	-9.8003709E-001	0
1.250308619474011E+004	-1.6094549E-001	-9.7997338E-001	0
1.250310179473991E+004	-1.5989569E-001	-9.7999251E-001	0
1.250313499473951E+004	-1.6090731E-001	-9.8005617E-001	0
1.250315459473929E+004	-1.5951395E-001	-9.7996074E-001	0
1.250317319473907E+004	-1.5844506E-001	-9.8005617E-001	0
1.250319739473876E+004	-1.5737619E-001	-9.7996706E-001	0
1.250320819473862E+004	-1.5611643E-001	-9.7995430E-001	0
1.250322859473838E+004	-1.5502845E-001	-9.7999889E-001	0
1.250328359473770E+004	-1.5607825E-001	-9.8001802E-001	0
1.250329559473757E+004	-1.5743344E-001	-9.7994167E-001	0
1.250331639473731E+004	-1.5844506E-001	-9.8003066E-001	0
1.250333759473707E+004	-1.5741435E-001	-9.8001158E-001	0
1.250339499473639E+004	-1.5611643E-001	-9.7996074E-001	0
1.250342619473598E+004	-1.5500936E-001	-9.8003066E-001	0
1.250342639473599E+004	-1.5319608E-001	-9.7997338E-001	0
1.250343899473583E+004	-1.5216537E-001	-9.7999889E-001	0
1.250345199473567E+004	-1.5090561E-001	-9.7997981E-001	0
1.250358499473406E+004	-1.5193632E-001	-9.7998613E-001	0
1.250359919473389E+004	-1.5086743E-001	-9.8002434E-001	0
1.250367419473297E+004	-1.5187906E-001	-9.7997981E-001	0
1.250374059473217E+004	-1.5290977E-001	-9.8006248E-001	0
1.250377719473174E+004	-1.5394048E-001	-9.7996706E-001	0
1.250378539473163E+004	-1.5292886E-001	-9.7994798E-001	0
1.250380319473144E+004	-1.5184088E-001	-9.7996706E-001	0
1.250383019473110E+004	-1.5069565E-001	-9.8000526E-001	0
1.250389579473031E+004	-1.4968403E-001	-9.8003066E-001	0
1.250391559473006E+004	-1.5071474E-001	-9.7997338E-001	0
1.250392139472999E+004	-1.5184088E-001	-9.8001802E-001	0
1.250395219472962E+004	-1.5285251E-001	-9.8006886E-001	0
1.250399839472907E+004	-1.5386413E-001	-9.7993523E-001	0
1.250400839472894E+004	-1.5243259E-001	-9.8001158E-001	0
1.250407339472816E+004	-1.5124919E-001	-9.7996706E-001	0
1.250407839472810E+004	-1.5016121E-001	-9.7996706E-001	0
1.250414259472731E+004	-1.5134461E-001	-9.7998613E-001	0
1.250415159472720E+004	-1.5029481E-001	-9.8000526E-001	0
1.250427599472570E+004	-1.4920685E-001	-9.7999251E-001	0
1.250428819472555E+004	-1.5023756E-001	-9.8001802E-001	0
1.250434759472484E+004	-1.4893962E-001	-9.8004341E-001	0
1.250444799472363E+004	-1.4997034E-001	-9.7999251E-001	0
1.250451139472285E+004	-1.5098196E-001	-9.7989696E-001	0
1.250457399472209E+004	-1.4991307E-001	-9.8000526E-001	0
1.250471619472036E+004	-1.5096287E-001	-9.8002434E-001	0
1.250481539471916E+004	-1.4987490E-001	-9.8006886E-001	0
1.250490339471810E+004	-1.5090561E-001	-9.8005617E-001	0
1.250490899471803E+004	-1.4958858E-001	-9.8001158E-001	0
1.250491619471794E+004	-1.4855787E-001	-9.8000526E-001	0
1.250496019471741E+004	-1.4745082E-001	-9.7999251E-001	0
1.250500719471683E+004	-1.4850062E-001	-9.7995430E-001	0
1.250504279471641E+004	-1.4739355E-001	-9.7996706E-001	0
1.250506099471622E+004	-1.4621015E-001	-9.8001158E-001	0
1.250507219471606E+004	-1.4517944E-001	-9.7998613E-001	0
1.250513119471536E+004	-1.4407238E-001	-9.7996074E-001	0
1.250515259471509E+004	-1.4523670E-001	-9.7995430E-001	0
1.250517299471484E+004	-1.4626741E-001	-9.7994798E-001	0
1.250521639471431E+004	-1.4525579E-001	-9.7999251E-001	0
1.250529659471335E+004	-1.4422508E-001	-9.8000526E-001	0
1.250530899471318E+004	-1.4321345E-001	-9.7994798E-001	0
1.250538519471226E+004	-1.4428234E-001	-9.8001158E-001	0
1.250541839471186E+004	-1.4535122E-001	-9.7994167E-001	0
1.250550099471086E+004	-1.4470226E-001	-9.7997981E-001	0