time/s	Ewe/V	I/mA	error	
6.005299848293362E+001	2.2059755E+000	-2.5025172E-002	0
6.011319848141284E+001	9.3995128E-003	-1.7493470E-001	0
6.019159847943229E+001	9.4567863E-003	-1.2492708E-001	0
6.045999847265193E+001	9.4567863E-003	-7.4906729E-002	0
6.505279835662805E+001	9.5331501E-003	-2.7021125E-002	0
6.505339835659834E+001	9.4949678E-003	-2.7021125E-002	0
7.505339810397709E+001	9.4376951E-003	-1.9327091E-002	0
8.505339785135584E+001	9.4376951E-003	-1.7204994E-002	0
9.505339759873459E+001	9.4376951E-003	-1.6066294E-002	0
1.050533973461133E+002	9.3422402E-003	-1.5261755E-002	0
1.150533970934921E+002	9.4758775E-003	-1.4666626E-002	0
1.250533968408708E+002	9.3804216E-003	-1.4157425E-002	0
1.350533965882496E+002	9.4376951E-003	-1.3706145E-002	0
1.450533963356283E+002	9.4186040E-003	-1.3226222E-002	0
1.550533960830071E+002	9.4758775E-003	-1.2867236E-002	0
1.650533958303859E+002	9.5140589E-003	-1.2611999E-002	0
1.750533955777646E+002	9.4186040E-003	-1.2326846E-002	0
1.850533953251434E+002	9.4376951E-003	-1.2049967E-002	0
1.950533950725221E+002	9.3995128E-003	-1.1804915E-002	0
2.050533948199009E+002	9.3995128E-003	-1.1575774E-002	0
2.150533945672796E+002	9.3804216E-003	-1.1344724E-002	0
2.250533943146584E+002	9.5331501E-003	-1.1134678E-002	0
2.350533940620371E+002	9.4567863E-003	-1.0943091E-002	0
2.450533938094159E+002	9.3231490E-003	-1.0738774E-002	0
2.550533935567946E+002	9.5331501E-003	-1.0574557E-002	0
2.650533933041734E+002	9.3995128E-003	-1.0400792E-002	0
2.750533930515521E+002	9.4186040E-003	-1.0225117E-002	0
2.850533927989309E+002	9.4376951E-003	-1.0076812E-002	0
2.950533925463096E+002	9.4376951E-003	-9.9272337E-003	0
3.050533922936884E+002	9.4186040E-003	-9.7916592E-003	0
3.150533920410671E+002	9.4186040E-003	-9.6649956E-003	0
3.250533917884459E+002	9.5140589E-003	-9.5485151E-003	0
3.350533915358246E+002	9.4949678E-003	-9.4218515E-003	0
3.450533912832034E+002	9.4758775E-003	-9.3085552E-003	0
3.550533910305821E+002	9.3995128E-003	-9.2168981E-003	0
3.650533907779609E+002	9.3995128E-003	-9.1137849E-003	0
3.750533905253396E+002	9.5140589E-003	-9.0036700E-003	0
3.850533902727184E+002	9.4567863E-003	-8.9247441E-003	0
3.950533900200971E+002	9.3995128E-003	-8.8286325E-003	0
4.050533897674759E+002	9.3613314E-003	-8.7395217E-003	0
4.150533895148546E+002	9.3613314E-003	-8.6599588E-003	0
4.250533892622334E+002	9.5140589E-003	-8.5873976E-003	0
4.350533890096121E+002	9.3613314E-003	-8.5103819E-003	0
4.450533887569909E+002	9.4758775E-003	-8.4416391E-003	0
4.550533885043697E+002	9.4758775E-003	-8.3818082E-003	0
4.650533882517484E+002	9.4949678E-003	-8.3200671E-003	0
4.750533879991272E+002	9.5140589E-003	-8.2589621E-003	0
4.850533877465059E+002	9.4758775E-003	-8.1927665E-003	0
4.950533874938847E+002	9.5331501E-003	-8.1221154E-003	0
5.050533872412634E+002	9.3995128E-003	-8.0610104E-003	0
5.150533869886422E+002	9.4186040E-003	-7.9986341E-003	0
5.250533867360209E+002	9.3613314E-003	-7.9292543E-003	0
5.350533864833997E+002	9.4758775E-003	-7.8643318E-003	0
5.450533862307784E+002	9.3995128E-003	-7.8051370E-003	0
5.550533859781572E+002	9.3613314E-003	-7.7389413E-003	0
5.650533857255359E+002	9.3804216E-003	-7.6689254E-003	0
5.750533854729147E+002	9.3995128E-003	-7.6180063E-003	0
5.850533852202934E+002	9.4186040E-003	-7.5384430E-003	0
5.950533849676722E+002	9.5140589E-003	-7.4887960E-003	0
6.050533847150509E+002	9.3995128E-003	-7.4232365E-003	0
6.150533844624297E+002	9.4186040E-003	-7.3608588E-003	0
6.250533842098084E+002	9.4949678E-003	-7.2952993E-003	0
6.350533839571872E+002	9.4567863E-003	-7.2475616E-003	0
6.450533837045659E+002	9.3804216E-003	-7.1877302E-003	0
6.550533834519447E+002	9.4567863E-003	-7.1310820E-003	0
6.650533831993234E+002	9.4376951E-003	-7.0737968E-003	0
6.750533829467022E+002	9.5331501E-003	-7.0209671E-003	0
6.850533826940809E+002	9.4376951E-003	-6.9725933E-003	0
6.950533824414597E+002	9.3995128E-003	-6.9235819E-003	0
7.050533821888384E+002	9.4758775E-003	-6.8624783E-003	0
7.150533819362172E+002	9.4376951E-003	-6.8102847E-003	0
7.250533816835959E+002	9.5140589E-003	-6.7676390E-003	0
7.350533814309747E+002	9.2849666E-003	-6.7192651E-003	0
7.450533811783534E+002	9.3422402E-003	-6.6619804E-003	0
7.550533809257322E+002	9.4186040E-003	-6.6008759E-003	0
7.650533806731110E+002	9.3231490E-003	-6.5633222E-003	0
7.750533804204897E+002	9.3804216E-003	-6.5079462E-003	0
7.850533801678685E+002	9.4567863E-003	-6.4735757E-003	0
7.950533799152472E+002	9.4376951E-003	-6.4143804E-003	0
8.050533796626260E+002	9.4376951E-003	-6.3666427E-003	0
8.150533794100047E+002	9.4567863E-003	-6.3214516E-003	0
8.250533791573835E+002	9.4376951E-003	-6.2972647E-003	0
8.350533789047622E+002	9.4758775E-003	-6.2361606E-003	0
8.450533786521410E+002	9.4186040E-003	-6.2043355E-003	0
8.550533783995197E+002	9.4567863E-003	-6.1553251E-003	0
8.650533781468985E+002	9.4758775E-003	-6.1158617E-003	0
8.750533778942772E+002	9.3804216E-003	-6.0770353E-003	0
8.850533776416560E+002	9.3613314E-003	-6.0273884E-003	0
8.950533773890347E+002	9.4949678E-003	-5.9879250E-003	0
9.050533771364135E+002	9.5522413E-003	-5.9541902E-003	0
9.150533768837922E+002	9.3995128E-003	-5.9172735E-003	0
9.250533766311710E+002	9.3995128E-003	-5.8714454E-003	0
9.350533763785497E+002	9.4186040E-003	-5.8294362E-003	0
9.450533761259285E+002	9.3804216E-003	-5.7931552E-003	0
9.550533758733072E+002	9.3613314E-003	-5.7486007E-003	0
9.650533756206860E+002	9.3804216E-003	-5.7225041E-003	0
9.750533753680647E+002	9.4949678E-003	-5.6715836E-003	0
9.850533751154435E+002	9.4376951E-003	-5.6563076E-003	0
9.950533748628222E+002	9.4949678E-003	-5.6092069E-003	0
1.005053374610201E+003	9.4949678E-003	-5.5805640E-003	0
1.015053374357580E+003	9.3804216E-003	-5.5481023E-003	0
1.025053374104958E+003	9.4376951E-003	-5.5130944E-003	0
1.035053373852337E+003	9.4758775E-003	-5.4685394E-003	0
1.045053373599716E+003	9.4567863E-003	-5.4411702E-003	0
1.055053373347095E+003	9.4949678E-003	-5.4106177E-003	0
1.065053373094474E+003	9.3613314E-003	-5.3870673E-003	0
1.075053372841852E+003	9.3995128E-003	-5.3552422E-003	0
1.085053372589231E+003	9.4376951E-003	-5.3195981E-003	0
1.095053372336610E+003	9.4758775E-003	-5.2922289E-003	0
1.105053372083989E+003	9.3613314E-003	-5.2527655E-003	0
1.115053371831367E+003	9.4186040E-003	-5.2247592E-003	0
1.125053371578746E+003	9.3804216E-003	-5.1992992E-003	0
1.135053371326125E+003	9.3995128E-003	-5.1655648E-003	0
1.145053371073504E+003	9.3231490E-003	-5.1324666E-003	0
1.155053370820882E+003	9.3995128E-003	-5.1082796E-003	0
1.165053370568261E+003	9.4186040E-003	-5.0828196E-003	0
1.175053370315640E+003	9.4376951E-003	-5.1006414E-003	0
1.185053370063019E+003	9.4949678E-003	-5.0439928E-003	0
1.195053369810397E+003	9.4376951E-003	-5.0204424E-003	0
1.205053369557776E+003	9.4186040E-003	-4.9879807E-003	0
1.215053369305155E+003	9.3995128E-003	-4.9402430E-003	0
1.225053369052534E+003	9.5140589E-003	-4.9096909E-003	0
1.235053368799912E+003	9.5713325E-003	-4.8835939E-003	0
1.245053368547291E+003	9.3040578E-003	-4.8632263E-003	0
1.255053368294670E+003	9.4186040E-003	-4.8422217E-003	0
1.265053368042049E+003	9.3804216E-003	-4.8129424E-003	0
1.275053367789427E+003	9.3995128E-003	-4.7919378E-003	0
1.285053367536806E+003	9.3804216E-003	-4.7562937E-003	0
1.295053367284185E+003	9.4186040E-003	-4.7403811E-003	0
1.305053367031564E+003	9.4758775E-003	-4.7231955E-003	0
1.315053366778942E+003	9.3804216E-003	-4.6932804E-003	0
1.325053366526321E+003	9.4186040E-003	-4.6671838E-003	0
1.335053366273700E+003	9.4376951E-003	-4.6461788E-003	0
1.345053366021079E+003	9.3995128E-003	-4.6270839E-003	0
1.355053365768457E+003	9.4949678E-003	-4.6022604E-003	0
1.365053365515836E+003	9.5331501E-003	-4.5755273E-003	0
1.375053365263215E+003	9.4949678E-003	-4.5468849E-003	0
1.385053365010594E+003	9.3613314E-003	-4.5188786E-003	0
1.395053364757972E+003	9.4376951E-003	-4.5042397E-003	0
1.405053364505351E+003	9.5140589E-003	-4.4954848E-003	0
1.415053364252730E+003	9.4758775E-003	-4.4741575E-003	0
1.425053364000109E+003	9.4186040E-003	-4.4466550E-003	0
1.435053363747487E+003	9.3613314E-003	-4.4210632E-003	0
1.445053363494866E+003	9.4567863E-003	-4.3979539E-003	0
1.455053363242245E+003	9.3995128E-003	-4.3763090E-003	0
1.465053362989624E+003	9.4567863E-003	-4.3624938E-003	0
1.475053362737002E+003	9.4376951E-003	-4.3329550E-003	0
1.485053362484381E+003	9.4567863E-003	-4.3214955E-003	0
1.495053362231760E+003	9.3995128E-003	-4.2890278E-003	0
1.505053361979139E+003	9.4758775E-003	-4.2743850E-003	0
1.515053361726517E+003	9.4949678E-003	-4.2540138E-003	0
1.525053361473896E+003	9.3613314E-003	-4.2338325E-003	0
1.535053361221275E+003	9.4186040E-003	-4.2144153E-003	0
1.545053360968654E+003	9.4758775E-003	-4.2018103E-003	0
1.555053360716032E+003	9.5331501E-003	-4.1812472E-003	0
1.565053360463411E+003	9.4949678E-003	-4.1650138E-003	0
1.575053360210790E+003	9.4376951E-003	-4.1454053E-003	0
1.585053359958169E+003	9.3995128E-003	-4.1163750E-003	0
1.595053359705547E+003	9.4758775E-003	-4.1028154E-003	0
1.605053359452926E+003	9.4186040E-003	-4.0864544E-003	0
1.615053359200305E+003	9.5140589E-003	-4.0663364E-003	0
1.625053358947684E+003	9.4186040E-003	-4.0500392E-003	0
1.635053358695062E+003	9.4186040E-003	-4.0273755E-003	0
1.645053358442441E+003	9.4376951E-003	-4.0061125E-003	0
1.655053358189820E+003	9.5140589E-003	-3.9604669E-003	0
1.665053357937199E+003	9.3995128E-003	-3.9672786E-003	0
1.675053357684577E+003	9.4376951E-003	-3.9512990E-003	0
1.685053357431956E+003	9.4186040E-003	-3.9332826E-003	0
1.690605957291686E+003	9.3613314E-003	-3.9175581E-003	0
1.690606157291681E+003	9.4376951E-003	-3.9281901E-003	0