time/s	Ewe/V	I/mA	error	
6.005299848293362E+001	2.7227254E+000	-2.5025172E-002	0
6.014319848065497E+001	9.3422402E-003	-1.0359324E+001	0
6.014379848063982E+001	9.4758775E-003	-1.0300056E+001	0
6.014439848062466E+001	9.3613314E-003	-1.0240467E+001	0
6.014499848060950E+001	9.4186040E-003	-1.0181453E+001	0
6.014559848059434E+001	9.3995128E-003	-1.0123521E+001	0
6.014619848057919E+001	9.4567863E-003	-1.0065589E+001	0
6.014679848056403E+001	9.4186040E-003	-1.0007339E+001	0
6.014739848054887E+001	9.4376951E-003	-9.9502344E+000	0
6.014799848053372E+001	9.4186040E-003	-9.8940849E+000	0
6.014859848051856E+001	9.3613314E-003	-9.8372984E+000	0
6.014919848050340E+001	9.4567863E-003	-9.7813396E+000	0
6.014979848048824E+001	9.4186040E-003	-9.7255087E+000	0
6.015039848047309E+001	9.4376951E-003	-9.6701231E+000	0
6.015099848045793E+001	9.3804216E-003	-9.6148005E+000	0
6.015159848044277E+001	9.4186040E-003	-9.5597963E+000	0
6.015219848042761E+001	9.4949678E-003	-9.5054941E+000	0
6.015279848041246E+001	9.4186040E-003	-9.4518261E+000	0
6.015339848039730E+001	9.4376951E-003	-9.3980961E+000	0
6.015399848038214E+001	9.3613314E-003	-9.3443651E+000	0
6.015459848036699E+001	9.3804216E-003	-9.2919722E+000	0
6.015519848035183E+001	9.4186040E-003	-9.2388783E+000	0
6.015579848033667E+001	9.4376951E-003	-9.1857214E+000	0
6.015639848032151E+001	9.4376951E-003	-9.1343460E+000	0
6.015699848030636E+001	9.3995128E-003	-9.0824614E+000	0
6.015759848029120E+001	9.3995128E-003	-9.0308962E+000	0
6.015819848027604E+001	9.4186040E-003	-8.9800940E+000	0
6.015879848026088E+001	9.3995128E-003	-8.9292278E+000	0
6.015939848024573E+001	9.3995128E-003	-8.8789349E+000	0
6.016019848022552E+001	9.3804216E-003	-8.8122807E+000	0
6.016099848020531E+001	9.4186040E-003	-8.7467098E+000	0
6.016159848019015E+001	9.4376951E-003	-8.6966715E+000	0
6.016239848016994E+001	9.4949678E-003	-8.6317358E+000	0
6.016319848014973E+001	9.4376951E-003	-8.5674381E+000	0
6.016399848012952E+001	9.3995128E-003	-8.5038404E+000	0
6.016479848010931E+001	9.4186040E-003	-8.4401150E+000	0
6.016559848008910E+001	9.4186040E-003	-8.3774719E+000	0
6.016639848006889E+001	9.3804216E-003	-8.3155279E+000	0
6.016719848004868E+001	9.4949678E-003	-8.2538404E+000	0
6.016799848002847E+001	9.4376951E-003	-8.1932983E+000	0
6.016879848000826E+001	9.3040578E-003	-8.1337738E+000	0
6.016959847998805E+001	9.3995128E-003	-8.0742512E+000	0
6.017039847996784E+001	9.5140589E-003	-8.0147905E+000	0
6.017119847994763E+001	9.3422402E-003	-7.9567947E+000	0
6.017199847992742E+001	9.3422402E-003	-7.8995624E+000	0
6.017279847990721E+001	9.4186040E-003	-7.8420758E+000	0
6.017359847988700E+001	9.3804216E-003	-7.7854815E+000	0
6.017439847986680E+001	9.3231490E-003	-7.7300315E+000	0
6.017519847984659E+001	9.4186040E-003	-7.6752825E+000	0
6.017599847982638E+001	9.3613314E-003	-7.6206608E+000	0
6.017679847980617E+001	9.4376951E-003	-7.5671849E+000	0
6.017759847978596E+001	9.3613314E-003	-7.5139637E+000	0
6.017839847976575E+001	9.3040578E-003	-7.4611883E+000	0
6.017919847974554E+001	9.4186040E-003	-7.4089217E+000	0
6.017999847972533E+001	9.3422402E-003	-7.3571014E+000	0
6.018079847970512E+001	9.3804216E-003	-7.3062348E+000	0
6.018179847967986E+001	9.3804216E-003	-7.2436562E+000	0
6.018279847965459E+001	9.3422402E-003	-7.1817770E+000	0
6.018379847962933E+001	9.4376951E-003	-7.1207886E+000	0
6.018479847960407E+001	9.3995128E-003	-7.0608835E+000	0
6.018579847957881E+001	9.3995128E-003	-7.0016136E+000	0
6.018679847955354E+001	9.4186040E-003	-6.9427271E+000	0
6.018779847952828E+001	9.4186040E-003	-6.8849859E+000	0
6.018879847950302E+001	9.5331501E-003	-6.8283267E+000	0
6.018979847947776E+001	9.3422402E-003	-6.7733870E+000	0
6.019079847945250E+001	9.3995128E-003	-6.7174921E+000	0
6.019179847942723E+001	9.3422402E-003	-6.6632524E+000	0
6.019279847940197E+001	9.3804216E-003	-6.6094580E+000	0
6.019379847937671E+001	9.3995128E-003	-6.5566826E+000	0
6.019479847935145E+001	9.3804216E-003	-6.5044794E+000	0
6.019579847932619E+001	9.4567863E-003	-6.4531689E+000	0
6.019679847930092E+001	9.4376951E-003	-6.4020481E+000	0
6.019779847927566E+001	9.4376951E-003	-6.3513732E+000	0
6.019899847924535E+001	9.3804216E-003	-6.2929325E+000	0
6.020019847921503E+001	9.4567863E-003	-6.2344270E+000	0
6.020139847918472E+001	9.3995128E-003	-6.1761131E+000	0
6.020259847915440E+001	9.3995128E-003	-6.1192627E+000	0
6.020379847912409E+001	9.5140589E-003	-6.0626040E+000	0
6.020499847909377E+001	9.4186040E-003	-6.0090013E+000	0
6.020619847906346E+001	9.4186040E-003	-5.9541883E+000	0
6.020739847903315E+001	9.4186040E-003	-5.9000120E+000	0
6.020859847900283E+001	9.4376951E-003	-5.8467269E+000	0
6.020979847897252E+001	9.3995128E-003	-5.7950339E+000	0
6.021099847894220E+001	9.4949678E-003	-5.7435312E+000	0
6.021219847891189E+001	9.3995128E-003	-5.6924748E+000	0
6.021339847888157E+001	9.3995128E-003	-5.6424370E+000	0
6.021479847884621E+001	9.4567863E-003	-5.5848231E+000	0
6.021619847881084E+001	9.4186040E-003	-5.5279727E+000	0
6.021759847877547E+001	9.3995128E-003	-5.4719510E+000	0
6.021899847874010E+001	9.3995128E-003	-5.4165649E+000	0
6.022039847870474E+001	9.3804216E-003	-5.3622613E+000	0
6.022179847866937E+001	9.4186040E-003	-5.3078947E+000	0
6.022319847863400E+001	9.3613314E-003	-5.2554369E+000	0
6.022459847859864E+001	9.3995128E-003	-5.2028522E+000	0
6.022599847856327E+001	9.4567863E-003	-5.1514778E+000	0
6.022739847852790E+001	9.4376951E-003	-5.1002936E+000	0
6.022899847848748E+001	9.4376951E-003	-5.0443354E+000	0
6.023039847845212E+001	9.4567863E-003	-4.9935331E+000	0
6.023199847841170E+001	9.3613314E-003	-4.9385295E+000	0
6.023359847837128E+001	9.4758775E-003	-4.8841619E+000	0
6.023519847833086E+001	9.4186040E-003	-4.8311958E+000	0
6.023679847829044E+001	9.4758775E-003	-4.7774653E+000	0
6.023839847825002E+001	9.4186040E-003	-4.7260904E+000	0
6.023999847820960E+001	9.3995128E-003	-4.6749697E+000	0
6.024159847816918E+001	9.3804216E-003	-4.6243587E+000	0
6.024339847812371E+001	9.3613314E-003	-4.5686545E+000	0
6.024519847807824E+001	9.3995128E-003	-4.5145421E+000	0
6.024699847803277E+001	9.4186040E-003	-4.4609389E+000	0
6.024879847798729E+001	9.3804216E-003	-4.4089274E+000	0
6.025059847794182E+001	9.4376951E-003	-4.3586984E+000	0
6.025259847789130E+001	9.4186040E-003	-4.3032494E+000	0
6.025459847784077E+001	9.3804216E-003	-4.2493277E+000	0
6.025659847779025E+001	9.4376951E-003	-4.1961703E+000	0
6.025859847773972E+001	9.3804216E-003	-4.1447315E+000	0
6.026059847768920E+001	9.3995128E-003	-4.0945024E+000	0
6.026279847763362E+001	9.4567863E-003	-4.0407081E+000	0
6.026499847757805E+001	9.4758775E-003	-3.9878049E+000	0
6.026739847751742E+001	9.5331501E-003	-3.9329922E+000	0
6.026979847745679E+001	9.3995128E-003	-3.8796439E+000	0
6.027219847739616E+001	9.4949678E-003	-3.8271866E+000	0
6.027459847733553E+001	9.4567863E-003	-3.7769573E+000	0
6.027719847726985E+001	9.4186040E-003	-3.7241180E+000	0
6.027979847720417E+001	9.3231490E-003	-3.6733162E+000	0
6.028259847713343E+001	9.5140589E-003	-3.6199040E+000	0
6.028559847705765E+001	9.4949678E-003	-3.5666828E+000	0
6.028859847698186E+001	9.3804216E-003	-3.5143526E+000	0
6.029159847690607E+001	9.3804216E-003	-3.4638054E+000	0
6.029479847682524E+001	9.4186040E-003	-3.4128764E+000	0
6.029819847673934E+001	9.4376951E-003	-3.3601005E+000	0
6.030179847664840E+001	9.3804216E-003	-3.3073885E+000	0
6.030539847655746E+001	9.4758775E-003	-3.2562685E+000	0
6.030919847646146E+001	9.3995128E-003	-3.2057843E+000	0
6.031319847636041E+001	9.3422402E-003	-3.1538365E+000	0
6.031739847625431E+001	9.4186040E-003	-3.1019523E+000	0
6.032179847614316E+001	9.3613314E-003	-3.0503862E+000	0
6.032639847602695E+001	9.4758775E-003	-2.9989476E+000	0
6.033119847590569E+001	9.4186040E-003	-2.9475727E+000	0
6.033599847578444E+001	9.4376951E-003	-2.8970251E+000	0
6.034119847565307E+001	9.3804216E-003	-2.8464141E+000	0
6.034659847551666E+001	9.4376951E-003	-2.7957397E+000	0
6.035219847537519E+001	9.4567863E-003	-2.7444918E+000	0
6.035819847522362E+001	9.4376951E-003	-2.6926076E+000	0
6.036439847506699E+001	9.5140589E-003	-2.6414874E+000	0
6.037079847490531E+001	9.4758775E-003	-2.5900486E+000	0
6.037739847473858E+001	9.4186040E-003	-2.5395648E+000	0
6.038439847456175E+001	9.4186040E-003	-2.4885716E+000	0
6.039159847437986E+001	9.5331501E-003	-2.4379606E+000	0
6.039899847419292E+001	9.3804216E-003	-2.3872223E+000	0
6.040679847399588E+001	9.3804216E-003	-2.3361020E+000	0
6.041499847378873E+001	9.3995128E-003	-2.2848544E+000	0
6.042319847358158E+001	9.4949678E-003	-2.2347524E+000	0
6.043219847335422E+001	9.4758775E-003	-2.1826773E+000	0
6.044119847312686E+001	9.4376951E-003	-2.1326392E+000	0
6.045079847288434E+001	9.4758775E-003	-2.0806911E+000	0
6.046059847263678E+001	9.4949678E-003	-2.0306530E+000	0
6.047079847237910E+001	9.4949678E-003	-1.9803603E+000	0
6.048159847210627E+001	9.4949678E-003	-1.9300038E+000	0
6.049259847182839E+001	9.4567863E-003	-1.8795837E+000	0
6.050439847153029E+001	9.4567863E-003	-1.8285270E+000	0
6.051659847122210E+001	9.5522413E-003	-1.7782344E+000	0
6.052939847089874E+001	9.4758775E-003	-1.7279414E+000	0
6.054279847056023E+001	9.3995128E-003	-1.6779033E+000	0
6.055699847020151E+001	9.4758775E-003	-1.6268467E+000	0
6.057199846982257E+001	9.4949678E-003	-1.5763631E+000	0
6.058799846941838E+001	9.3040578E-003	-1.5258157E+000	0
6.060459846899903E+001	9.3995128E-003	-1.4757776E+000	0
6.062259846854431E+001	9.4186040E-003	-1.4251028E+000	0
6.064159846806433E+001	9.3804216E-003	-1.3747464E+000	0
6.066199846754898E+001	9.4567863E-003	-1.3243264E+000	0
6.068419846698816E+001	9.4758775E-003	-1.2739062E+000	0
6.070779846639198E+001	9.4376951E-003	-1.2228495E+000	0
6.073339846574527E+001	9.4186040E-003	-1.1722385E+000	0
6.076139846503793E+001	9.3613314E-003	-1.1219457E+000	0
6.079159846427501E+001	9.4376951E-003	-1.0719076E+000	0
6.082459846344136E+001	9.4567863E-003	-1.0213603E+000	0
6.086179846250161E+001	9.3422402E-003	-9.7119468E-001	0
6.090299846146081E+001	9.4758775E-003	-9.2102933E-001	0
6.094979846027854E+001	9.4567863E-003	-8.6997259E-001	0
6.100259845894470E+001	9.4376951E-003	-8.1980717E-001	0
6.106279845742392E+001	9.5331501E-003	-7.6970536E-001	0
6.113339845564042E+001	9.3422402E-003	-7.1954000E-001	0
6.121599845355377E+001	9.3231490E-003	-6.6950190E-001	0
6.131479845105787E+001	9.4376951E-003	-6.1933649E-001	0
6.143419844804157E+001	9.4949678E-003	-5.6923473E-001	0
6.158199844430783E+001	9.4186040E-003	-5.1913291E-001	0
6.176579843966465E+001	9.3995128E-003	-4.6909481E-001	0
6.200939843351080E+001	9.3613314E-003	-4.1892403E-001	0
6.232499842553807E+001	9.5713325E-003	-3.6880815E-001	0
6.276279841447831E+001	9.5140589E-003	-3.1878778E-001	0
6.340859839816403E+001	9.3804216E-003	-2.6877379E-001	0
6.444359837201773E+001	9.5331501E-003	-2.1873435E-001	0
6.505279835662805E+001	9.3613314E-003	-1.9916809E-001	0
6.505339835659834E+001	9.4949678E-003	-1.9890702E-001	0
6.750899829456466E+001	9.4376951E-003	-1.4888668E-001	0
7.299659815593623E+001	9.4758775E-003	-9.8847218E-002	0
8.299659790331498E+001	9.5140589E-003	-6.2853701E-002	0
9.299659765069373E+001	9.3995128E-003	-4.6343669E-002	0
1.029965973980725E+002	9.4376951E-003	-3.7399285E-002	0
1.129965971454512E+002	9.3995128E-003	-3.1651039E-002	0
1.229965968928300E+002	9.3613314E-003	-2.7694542E-002	0
1.329965966402087E+002	9.3040578E-003	-2.4741812E-002	0
1.429965963875875E+002	9.3613314E-003	-2.2489870E-002	0
1.529965961349662E+002	9.5140589E-003	-2.0726757E-002	0
1.629965958823450E+002	9.3995128E-003	-1.9243073E-002	0
1.729965956297237E+002	9.3422402E-003	-1.8159749E-002	0
1.829965953771025E+002	9.4186040E-003	-1.7117158E-002	0
1.929965951244812E+002	9.4567863E-003	-1.6247697E-002	0
2.029965948718600E+002	9.3804216E-003	-1.5462890E-002	0
2.129965946192387E+002	9.3231490E-003	-1.4895767E-002	0
2.229965943666175E+002	9.3995128E-003	-1.4243352E-002	0
2.329965941139963E+002	9.3613314E-003	-1.3664137E-002	0
2.429965938613750E+002	9.4376951E-003	-1.3212220E-002	0
2.529965936087538E+002	9.5140589E-003	-1.2781944E-002	0
2.629965933561325E+002	9.3422402E-003	-1.2380312E-002	0
2.729965931035113E+002	9.5522413E-003	-1.1998410E-002	0
2.829965928508900E+002	9.4376951E-003	-1.1712622E-002	0
2.929965925982688E+002	9.4186040E-003	-1.1417286E-002	0
3.029965923456475E+002	9.4186040E-003	-1.1154409E-002	0
3.129965920930263E+002	9.4376951E-003	-1.0825339E-002	0
3.229965918404050E+002	9.3804216E-003	-1.0582195E-002	0
3.329965915877838E+002	9.3804216E-003	-1.0354327E-002	0
3.429965913351625E+002	9.4376951E-003	-1.0130915E-002	0
3.529965910825413E+002	9.5713325E-003	-9.8718582E-003	0
3.629965908299200E+002	9.4949678E-003	-9.7407391E-003	0
3.729965905772988E+002	9.4376951E-003	-9.5510622E-003	0
3.829965903246775E+002	9.3804216E-003	-9.3378332E-003	0
3.929965900720563E+002	9.4376951E-003	-9.1971662E-003	0
4.029965898194350E+002	9.4186040E-003	-9.0526808E-003	0
4.129965895668138E+002	9.4186040E-003	-8.8477274E-003	0
4.229965893141925E+002	9.3804216E-003	-8.6860564E-003	0
4.329965890615713E+002	9.4376951E-003	-8.5262936E-003	0
4.429965888089500E+002	9.3613314E-003	-8.3939014E-003	0
4.529965885563288E+002	9.4186040E-003	-8.2793320E-003	0
4.629965883037075E+002	9.4758775E-003	-8.1730355E-003	0
4.729965880510863E+002	9.2658754E-003	-8.0342777E-003	0
4.829965877984650E+002	9.3804216E-003	-7.8668781E-003	0
4.929965875458438E+002	9.4376951E-003	-7.8344159E-003	0
5.029965872932225E+002	9.4186040E-003	-7.6523772E-003	0
5.129965870406013E+002	9.3995128E-003	-7.5581744E-003	0
5.229965867879801E+002	9.4567863E-003	-7.4817939E-003	0
5.329965865353588E+002	9.5140589E-003	-7.3544942E-003	0
5.429965862827376E+002	9.3804216E-003	-7.2456528E-003	0
5.529965860301163E+002	9.4186040E-003	-7.2042793E-003	0
5.629965857774951E+002	9.4567863E-003	-7.1387198E-003	0
5.729965855248738E+002	9.4758775E-003	-7.0260591E-003	0
5.829965852722526E+002	9.3995128E-003	-6.9910511E-003	0
5.929965850196313E+002	9.4376951E-003	-6.8707522E-003	0
6.029965847670101E+002	9.4949678E-003	-6.7771864E-003	0
6.129965845143888E+002	9.4376951E-003	-6.7249942E-003	0
6.229965842617676E+002	9.3422402E-003	-6.6467039E-003	0
6.329965840091463E+002	9.4758775E-003	-6.5703234E-003	0
6.429965837565251E+002	9.4186040E-003	-6.4576627E-003	0
6.529965835039038E+002	9.3995128E-003	-6.4627551E-003	0
6.629965832512826E+002	9.4949678E-003	-6.3609146E-003	0
6.729965829986613E+002	9.4949678E-003	-6.2437984E-003	0
6.829965827460401E+002	9.4758775E-003	-6.1896960E-003	0
6.929965824934188E+002	9.4758775E-003	-6.1343205E-003	0
7.029965822407976E+002	9.3995128E-003	-6.1260457E-003	0
7.129965819881763E+002	9.4186040E-003	-6.0573034E-003	0
7.229965817355551E+002	9.3995128E-003	-5.9306398E-003	0
7.329965814829338E+002	9.5331501E-003	-5.9331856E-003	0
7.429965812303126E+002	9.4186040E-003	-5.9032701E-003	0
7.529965809776913E+002	9.4186040E-003	-5.8307094E-003	0
7.629965807250701E+002	9.3995128E-003	-5.8027026E-003	0
7.729965804724488E+002	9.3804216E-003	-5.6970441E-003	0
7.829965802198276E+002	9.4376951E-003	-5.6582172E-003	0
7.929965799672063E+002	9.3040578E-003	-5.6200270E-003	0
8.029965797145851E+002	9.3995128E-003	-5.5531939E-003	0
8.129965794619638E+002	9.4376951E-003	-5.5461926E-003	0
8.229965792093426E+002	9.4949678E-003	-5.4647205E-003	0
8.329965789567214E+002	9.3995128E-003	-5.4653566E-003	0
8.429965787041001E+002	9.4567863E-003	-5.3756097E-003	0
8.529965784514789E+002	9.3995128E-003	-5.3520598E-003	0
8.629965781988576E+002	9.3804216E-003	-5.2183946E-003	0
8.729965779462364E+002	9.4567863E-003	-5.2425819E-003	0
8.829965776936151E+002	9.4949678E-003	-5.2024820E-003	0
8.929965774409939E+002	9.5140589E-003	-5.1630186E-003	0
9.029965771883726E+002	9.4949678E-003	-5.0758179E-003	0
9.129965769357514E+002	9.4186040E-003	-5.0993683E-003	0
9.229965766831301E+002	9.4758775E-003	-5.0739083E-003	0
9.329965764305089E+002	9.4376951E-003	-5.0471751E-003	0
9.429965761778876E+002	9.3804216E-003	-4.9631568E-003	0
9.529965759252664E+002	9.4186040E-003	-4.9402430E-003	0
9.629965756726451E+002	9.3231490E-003	-4.8835939E-003	0
9.729965754200239E+002	9.4376951E-003	-4.8715007E-003	0
9.829965751674026E+002	9.4567863E-003	-4.8237629E-003	0
9.929965749147814E+002	9.3804216E-003	-4.7562937E-003	0
1.002996574662160E+003	9.3613314E-003	-4.7321068E-003	0
1.012996574409539E+003	9.3995128E-003	-4.7518383E-003	0
1.022996574156918E+003	9.3804216E-003	-4.6881880E-003	0
1.032996573904296E+003	9.3995128E-003	-4.6754577E-003	0
1.042996573651675E+003	9.4567863E-003	-4.5857113E-003	0
1.052996573399054E+003	9.4949678E-003	-4.6226284E-003	0
1.062996573146433E+003	9.3804216E-003	-4.5570689E-003	0
1.072996572893811E+003	9.4376951E-003	-4.5284261E-003	0
1.082996572641190E+003	9.3422402E-003	-4.5394115E-003	0
1.092996572388569E+003	9.3422402E-003	-4.4912193E-003	0
1.102996572135948E+003	9.4567863E-003	-4.4674729E-003	0
1.112996571883326E+003	9.4186040E-003	-4.4304216E-003	0
1.122996571630705E+003	9.4186040E-003	-4.3893596E-003	0
1.132996571378084E+003	9.3613314E-003	-4.3716612E-003	0
1.142996571125463E+003	9.5331501E-003	-4.3585473E-003	0
1.152996570872841E+003	9.4186040E-003	-4.3073623E-003	0
1.162996570620220E+003	9.4567863E-003	-4.2980043E-003	0
1.172996570367599E+003	9.4186040E-003	-4.2661093E-003	0
1.182996570114978E+003	9.4186040E-003	-4.2476468E-003	0
1.192996569862356E+003	9.4376951E-003	-4.2063938E-003	0
1.202996569609735E+003	9.4376951E-003	-4.1746902E-003	0
1.212996569357114E+003	9.3804216E-003	-4.1659684E-003	0
1.222996569104493E+003	9.3422402E-003	-4.1438141E-003	0
1.232996568851871E+003	9.3804216E-003	-4.1065076E-003	0
1.242996568599250E+003	9.3613314E-003	-4.0926929E-003	0
1.252996568346629E+003	9.4186040E-003	-4.0600342E-003	0
1.262996568094008E+003	9.4376951E-003	-4.0467926E-003	0
1.272996567841386E+003	9.3040578E-003	-4.0335506E-003	0
1.282996567588765E+003	9.3231490E-003	-4.0225373E-003	0
1.292996567336144E+003	9.4186040E-003	-4.0084044E-003	0
1.302996567083523E+003	9.4758775E-003	-3.9945897E-003	0
1.309340766923255E+003	9.4758775E-003	-3.9096004E-003	0
1.309340966923250E+003	9.3613314E-003	-3.9284443E-003	0