time/s	Ewe/V	I/mA	error	
6.005299848293362E+001	2.7364206E+000	-2.5031064E-002	0
6.017319847989711E+001	9.2940545E-003	-8.5534315E+000	0
6.017379847988195E+001	9.4658490E-003	-8.5006113E+000	0
6.017459847986174E+001	9.4085848E-003	-8.4357014E+000	0
6.017539847984153E+001	9.5612910E-003	-8.3720627E+000	0
6.017619847982132E+001	9.4085848E-003	-8.3090611E+000	0
6.017679847980617E+001	9.3322312E-003	-8.2556047E+000	0
6.017759847978596E+001	9.3513196E-003	-8.1970577E+000	0
6.017839847976575E+001	9.4658490E-003	-8.1346931E+000	0
6.017899847975059E+001	9.3894964E-003	-8.0818720E+000	0
6.017979847973038E+001	9.4849374E-003	-8.0207796E+000	0
6.018059847971017E+001	9.4276723E-003	-7.9609604E+000	0
6.018139847968996E+001	9.3894964E-003	-7.9043212E+000	0
6.018219847966975E+001	9.4085848E-003	-7.8457751E+000	0
6.018299847964954E+001	9.4276723E-003	-7.7776828E+000	0
6.018379847962933E+001	9.4085848E-003	-7.7216806E+000	0
6.018459847960912E+001	9.4276723E-003	-7.6663156E+000	0
6.018559847958386E+001	9.3322312E-003	-7.5944042E+000	0
6.018639847956365E+001	9.4085848E-003	-7.5377660E+000	0
6.018719847954344E+001	9.3322312E-003	-7.4830379E+000	0
6.018799847952323E+001	9.3513196E-003	-7.4257636E+000	0
6.018899847949797E+001	9.3513196E-003	-7.3602161E+000	0
6.018959847948281E+001	9.4467606E-003	-7.3093057E+000	0
6.019039847946260E+001	9.4276723E-003	-7.2590313E+000	0
6.019139847943734E+001	9.3704080E-003	-7.1896658E+000	0
6.019219847941713E+001	9.2940545E-003	-7.1381192E+000	0
6.019319847939187E+001	9.3704080E-003	-7.0789351E+000	0
6.019399847937166E+001	9.4085848E-003	-7.0261159E+000	0
6.019479847935145E+001	9.4085848E-003	-6.9694777E+000	0
6.019579847932619E+001	9.3704080E-003	-6.9083853E+000	0
6.019679847930092E+001	9.2749661E-003	-6.8441105E+000	0
6.019759847928071E+001	9.3894964E-003	-6.7836542E+000	0
6.019859847925545E+001	9.4276723E-003	-6.7270164E+000	0
6.019959847923019E+001	9.4467606E-003	-6.6691055E+000	0
6.020059847920493E+001	9.5231142E-003	-6.6131039E+000	0
6.020139847918472E+001	9.3131429E-003	-6.5583749E+000	0
6.020239847915946E+001	9.4085848E-003	-6.5030098E+000	0
6.020339847913419E+001	9.3704080E-003	-6.4463725E+000	0
6.020419847911398E+001	9.3131429E-003	-6.3948250E+000	0
6.020539847908367E+001	9.3131429E-003	-6.3280053E+000	0
6.020659847905335E+001	9.3131429E-003	-6.2694583E+000	0
6.020759847902809E+001	9.4276723E-003	-6.2102742E+000	0
6.020859847900283E+001	9.3513196E-003	-6.1593642E+000	0
6.020959847897757E+001	9.3322312E-003	-6.1065445E+000	0
6.021059847895231E+001	9.3322312E-003	-6.0530887E+000	0
6.021159847892704E+001	9.4467606E-003	-5.9932685E+000	0
6.021279847889673E+001	9.3513196E-003	-5.9328127E+000	0
6.021399847886642E+001	9.4658490E-003	-5.8793564E+000	0
6.021519847883610E+001	9.3513196E-003	-5.8201728E+000	0
6.021639847880579E+001	9.4276723E-003	-5.7565341E+000	0
6.021779847877042E+001	9.3894964E-003	-5.6954417E+000	0
6.021899847874010E+001	9.3894964E-003	-5.6368947E+000	0
6.022039847870474E+001	9.3131429E-003	-5.5783477E+000	0
6.022159847867442E+001	9.3513196E-003	-5.5268006E+000	0
6.022279847864411E+001	9.3704080E-003	-5.4701624E+000	0
6.022399847861379E+001	9.3513196E-003	-5.4147973E+000	0
6.022539847857843E+001	9.3513196E-003	-5.3543415E+000	0
6.022679847854306E+001	9.4467606E-003	-5.2996125E+000	0
6.022819847850769E+001	9.4467606E-003	-5.2455201E+000	0
6.022939847847738E+001	9.4085848E-003	-5.1946096E+000	0
6.023059847844706E+001	9.4658490E-003	-5.1443353E+000	0
6.023199847841170E+001	9.3322312E-003	-5.0889697E+000	0
6.023339847837633E+001	9.5040258E-003	-5.0336046E+000	0
6.023479847834096E+001	9.3704080E-003	-4.9763303E+000	0
6.023639847830054E+001	9.3894964E-003	-4.9235110E+000	0
6.023779847826518E+001	9.3704080E-003	-4.8726001E+000	0
6.023939847822476E+001	9.3894964E-003	-4.8057804E+000	0
6.024119847817929E+001	9.3322312E-003	-4.7497787E+000	0
6.024279847813887E+001	9.3131429E-003	-4.6969590E+000	0
6.024439847809845E+001	9.3513196E-003	-4.6390481E+000	0
6.024599847805803E+001	9.3513196E-003	-4.5868649E+000	0
6.024779847801256E+001	9.4467606E-003	-4.5353179E+000	0
6.024919847797719E+001	9.4276723E-003	-4.4850435E+000	0
6.025119847792666E+001	9.4276723E-003	-4.4284058E+000	0
6.025279847788624E+001	9.4467606E-003	-4.3743134E+000	0
6.025479847783572E+001	9.3322312E-003	-4.3202214E+000	0
6.025659847779025E+001	9.3704080E-003	-4.2642193E+000	0
6.025839847774478E+001	9.4085848E-003	-4.2139454E+000	0
6.026019847769930E+001	9.3894964E-003	-4.1630344E+000	0
6.026219847764878E+001	9.4085848E-003	-4.1070333E+000	0
6.026419847759826E+001	9.3894964E-003	-4.0554862E+000	0
6.026619847754773E+001	9.4276723E-003	-3.9982116E+000	0
6.026859847748710E+001	9.3894964E-003	-3.9377553E+000	0
6.027079847743153E+001	9.4658490E-003	-3.8811176E+000	0
6.027299847737595E+001	9.4085848E-003	-3.9591677E+000	0
6.030319847661303E+001	9.3322312E-003	-3.2296274E+000	0
6.030619847653725E+001	9.4085848E-003	-3.1781554E+000	0
6.030939847645641E+001	9.4658490E-003	-3.1254742E+000	0
6.031259847637557E+001	9.3322312E-003	-3.0754018E+000	0
6.031599847628968E+001	9.5231142E-003	-3.0224662E+000	0
6.031939847620379E+001	9.3704080E-003	-2.9723938E+000	0
6.032299847611284E+001	9.3704080E-003	-2.9222574E+000	0
6.032679847601685E+001	9.3513196E-003	-2.8699582E+000	0
6.033079847591580E+001	9.4467606E-003	-2.8175313E+000	0
6.033499847580970E+001	9.3513196E-003	-2.7663138E+000	0
6.033919847570360E+001	9.4467606E-003	-2.7161777E+000	0
6.034379847558739E+001	9.4085848E-003	-2.6645782E+000	0
6.034839847547119E+001	9.3704080E-003	-2.6138058E+000	0
6.035339847534487E+001	9.3322312E-003	-2.5626516E+000	0
6.035859847521351E+001	9.4658490E-003	-2.5110524E+000	0
6.036399847507710E+001	9.3894964E-003	-2.4609795E+000	0
6.036979847493058E+001	9.2940545E-003	-2.4105256E+000	0
6.037579847477900E+001	9.3131429E-003	-2.3590531E+000	0
6.038219847461733E+001	9.3322312E-003	-2.3085353E+000	0
6.038879847445060E+001	9.3513196E-003	-2.2580173E+000	0
6.039579847427376E+001	9.3131429E-003	-2.2076905E+000	0
6.040319847408682E+001	9.3704080E-003	-2.1568544E+000	0
6.041099847388978E+001	9.4467606E-003	-2.1064639E+000	0
6.041939847367757E+001	9.4467606E-003	-2.0556915E+000	0
6.042799847346032E+001	9.3513196E-003	-2.0051734E+000	0
6.043719847322791E+001	9.2367893E-003	-1.9549100E+000	0
6.044679847298539E+001	9.4658490E-003	-1.9047738E+000	0
6.045719847272267E+001	9.4658490E-003	-1.8535563E+000	0
6.046799847244984E+001	9.4467606E-003	-1.8028474E+000	0
6.047939847216185E+001	9.4849374E-003	-1.7525841E+000	0
6.049139847185870E+001	9.4085848E-003	-1.7023206E+000	0
6.050439847153029E+001	9.3894964E-003	-1.6514846E+000	0
6.051779847119178E+001	9.4085848E-003	-1.6010940E+000	0
6.053239847082295E+001	9.3513196E-003	-1.5507669E+000	0
6.054779847043392E+001	9.4085848E-003	-1.5005038E+000	0
6.056419847001962E+001	9.4085848E-003	-1.4501131E+000	0
6.058159846958006E+001	9.4658490E-003	-1.4000405E+000	0
6.060059846910008E+001	9.2749661E-003	-1.3497134E+000	0
6.062099846858473E+001	9.3513196E-003	-1.2991320E+000	0
6.064299846802896E+001	9.3513196E-003	-1.2490596E+000	0
6.066679846742773E+001	9.4467606E-003	-1.1984143E+000	0
6.069339846675575E+001	9.4276723E-003	-1.1480874E+000	0
6.072199846603326E+001	9.3704080E-003	-1.0973787E+000	0
6.075379846522992E+001	9.3131429E-003	-1.0470517E+000	0
6.078879846434575E+001	9.4276723E-003	-9.9704272E-001	0
6.082839846334537E+001	9.3513196E-003	-9.4671577E-001	0
6.087299846221867E+001	9.4658490E-003	-8.9626139E-001	0
6.092299846095557E+001	9.4658490E-003	-8.4599799E-001	0
6.098219845946005E+001	9.4276723E-003	-7.9579830E-001	0
6.104939845776244E+001	9.3513196E-003	-7.4559855E-001	0
6.113079845570610E+001	9.4849374E-003	-6.9546247E-001	0
6.122839845324052E+001	9.4467606E-003	-6.4500815E-001	0
6.134579845027474E+001	9.3322312E-003	-5.9493572E-001	0
6.149599844648037E+001	9.3894964E-003	-5.4492682E-001	0
6.168579844168562E+001	9.3894964E-003	-4.9447250E-001	0
6.193719843533472E+001	9.4276723E-003	-4.4433638E-001	0
6.230179842612415E+001	9.3894964E-003	-3.9409617E-001	0
6.279979841354361E+001	9.3322312E-003	-3.4399208E-001	0
6.355399839449092E+001	9.3704080E-003	-2.9391983E-001	0
6.478019836351450E+001	9.3322312E-003	-2.4391119E-001	0
6.505279835662805E+001	9.3704080E-003	-2.3594774E-001	0
6.505339835659834E+001	9.1986125E-003	-2.3547032E-001	0
6.748359829520632E+001	9.3322312E-003	-1.8543625E-001	0
7.249379816863802E+001	9.4085848E-003	-1.3531943E-001	0
8.249379791601677E+001	9.3513196E-003	-9.2013851E-002	0
9.249379766339553E+001	9.4467606E-003	-7.1223617E-002	0
1.024937974107743E+002	9.2749661E-003	-5.8231302E-002	0
1.124937971581530E+002	9.2940545E-003	-4.8982002E-002	0
1.224937969055318E+002	9.2367893E-003	-4.3111555E-002	0
1.324937966529105E+002	9.3704080E-003	-3.8588483E-002	0
1.424937964002893E+002	9.4085848E-003	-3.5044730E-002	0
1.524937961476680E+002	9.3894964E-003	-3.2184400E-002	0
1.624937958950468E+002	9.4085848E-003	-2.9816600E-002	0
1.724937956424255E+002	9.2749661E-003	-2.7871955E-002	0
1.824937953898043E+002	9.3322312E-003	-2.6245482E-002	0
1.924937951371830E+002	9.3894964E-003	-2.4848090E-002	0
2.024937948845618E+002	9.3894964E-003	-2.3612328E-002	0
2.124937946319405E+002	9.3131429E-003	-2.2515284E-002	0
2.224937943793193E+002	9.3322312E-003	-2.1506693E-002	0
2.324937941266980E+002	9.3894964E-003	-2.0647004E-002	0
2.424937938740768E+002	9.3704080E-003	-1.9815950E-002	0
2.524937936214556E+002	9.3513196E-003	-1.9107072E-002	0
2.624937933688343E+002	9.2558777E-003	-1.8440830E-002	0
2.724937931162131E+002	9.3322312E-003	-1.7820401E-002	0
2.824937928635918E+002	9.3704080E-003	-1.7264243E-002	0
2.924937926109706E+002	9.2558777E-003	-1.6843626E-002	0
3.024937923583493E+002	9.3704080E-003	-1.6391192E-002	0
3.124937921057281E+002	9.3513196E-003	-1.5978212E-002	0
3.224937918531068E+002	9.2558777E-003	-1.5534049E-002	0
3.324937916004856E+002	9.3131429E-003	-1.5070796E-002	0
3.424937913478643E+002	9.3131429E-003	-1.4661632E-002	0
3.524937910952431E+002	9.3513196E-003	-1.4382280E-002	0
3.624937908426218E+002	9.3704080E-003	-1.4100385E-002	0
3.724937905900006E+002	9.3704080E-003	-1.3732582E-002	0
3.824937903373793E+002	9.2558777E-003	-1.3432233E-002	0
3.924937900847581E+002	9.4658490E-003	-1.3118519E-002	0
4.024937898321368E+002	9.4467606E-003	-1.2844895E-002	0
4.124937895795156E+002	9.3131429E-003	-1.2664176E-002	0
4.224937893268943E+002	9.3513196E-003	-1.2314191E-002	0
4.324937890742731E+002	9.2177009E-003	-1.2157016E-002	0
4.424937888216518E+002	9.2749661E-003	-1.2000478E-002	0
4.524937885690306E+002	9.4467606E-003	-1.1739580E-002	0
4.624937883164093E+002	9.3704080E-003	-1.1483773E-002	0
4.724937880637881E+002	9.4467606E-003	-1.1355869E-002	0
4.824937878111668E+002	9.3513196E-003	-1.1073973E-002	0
4.924937875585456E+002	9.4276723E-003	-1.0945433E-002	0
5.024937873059243E+002	9.3322312E-003	-1.0858255E-002	0
5.124937870533031E+002	9.2940545E-003	-1.0716990E-002	0
5.224937868006818E+002	9.3704080E-003	-1.0449728E-002	0
5.324937865480606E+002	9.3322312E-003	-1.0295734E-002	0
5.424937862954394E+002	9.3704080E-003	-1.0183102E-002	0
5.524937860428181E+002	9.3704080E-003	-1.0038654E-002	0
5.624937857901969E+002	9.4085848E-003	-9.9247508E-003	0
5.724937855375756E+002	9.3322312E-003	-9.7542126E-003	0
5.824937852849544E+002	9.3704080E-003	-9.6466718E-003	0
5.924937850323331E+002	9.3322312E-003	-9.5601305E-003	0
6.024937847797119E+002	9.2940545E-003	-9.4099557E-003	0
6.124937845270906E+002	9.2749661E-003	-9.2635984E-003	0
6.224937842744694E+002	9.2940545E-003	-9.1369674E-003	0
6.324937840218481E+002	9.4085848E-003	-9.0440623E-003	0
6.424937837692269E+002	9.4276723E-003	-8.9486120E-003	0
6.524937835166056E+002	9.3322312E-003	-8.8334354E-003	0
6.624937832639844E+002	9.3513196E-003	-8.8048000E-003	0
6.724937830113631E+002	9.3131429E-003	-8.7545309E-003	0
6.824937827587419E+002	9.3322312E-003	-8.5801734E-003	0
6.924937825061206E+002	9.3131429E-003	-8.5222675E-003	0
7.024937822534994E+002	9.4467606E-003	-8.3205486E-003	0
7.124937820008781E+002	9.4276723E-003	-8.2600974E-003	0
7.224937817482569E+002	9.3131429E-003	-8.2473699E-003	0
7.324937814956356E+002	9.4085848E-003	-8.1150131E-003	0
7.424937812430144E+002	9.4276723E-003	-8.1061041E-003	0
7.524937809903931E+002	9.2749661E-003	-7.9852007E-003	0
7.624937807377719E+002	9.3513196E-003	-7.8897504E-003	0
7.724937804851506E+002	9.3704080E-003	-7.7688461E-003	0
7.824937802325294E+002	9.2940545E-003	-7.6937587E-003	0
7.924937799799081E+002	9.3131429E-003	-7.6358519E-003	0
8.024937797272869E+002	9.2177009E-003	-7.5391289E-003	0
8.124937794746656E+002	9.4467606E-003	-7.4996762E-003	0
8.224937792220444E+002	9.2940545E-003	-7.4347700E-003	0
8.324937789694231E+002	9.2749661E-003	-7.3399562E-003	0
8.424937787168019E+002	9.2177009E-003	-7.3036845E-003	0
8.524937784641807E+002	9.2940545E-003	-7.2349608E-003	0
8.624937782115594E+002	9.3131429E-003	-7.1471464E-003	0
8.724937779589382E+002	9.3894964E-003	-7.0542414E-003	0
8.824937777063169E+002	9.4085848E-003	-7.0275152E-003	0
8.924937774536957E+002	9.3704080E-003	-7.1134204E-003	0
9.024937772010744E+002	9.2940545E-003	-6.9537004E-003	0
9.124937769484532E+002	9.4085848E-003	-6.8665226E-003	0
9.224937766958319E+002	9.3704080E-003	-6.8436144E-003	0
9.324937764432107E+002	9.3894964E-003	-6.7742537E-003	0
9.424937761905894E+002	9.2940545E-003	-6.7583458E-003	0
9.524937759379682E+002	9.3513196E-003	-6.7042569E-003	0
9.624937756853469E+002	9.4276723E-003	-6.6508045E-003	0
9.724937754327257E+002	9.3513196E-003	-6.5445369E-003	0
9.824937751801044E+002	9.2749661E-003	-6.5254467E-003	0
9.924937749274832E+002	9.3894964E-003	-6.4497232E-003	0
1.002493774674862E+003	9.2749661E-003	-6.3650897E-003	0
1.012493774422241E+003	9.3513196E-003	-6.3313646E-003	0
1.022493774169619E+003	9.3513196E-003	-6.2696398E-003	0
1.032493773916998E+003	9.2558777E-003	-6.2320963E-003	0
1.042493773664377E+003	9.2749661E-003	-6.2371865E-003	0
1.052493773411756E+003	9.2749661E-003	-6.1360095E-003	0
1.062493773159134E+003	9.3131429E-003	-6.0901931E-003	0
1.072493772906513E+003	9.3704080E-003	-6.0227420E-003	0
1.082493772653892E+003	9.2749661E-003	-6.0100150E-003	0
1.092493772401271E+003	9.2940545E-003	-5.9921974E-003	0
1.102493772148649E+003	9.2940545E-003	-5.9164739E-003	0
1.112493771896028E+003	9.2940545E-003	-5.9043835E-003	0
1.122493771643407E+003	9.3131429E-003	-5.8146603E-003	0
1.132493771390786E+003	9.3704080E-003	-5.7631168E-003	0
1.142493771138164E+003	9.3704080E-003	-5.8833845E-003	0
1.152493770885543E+003	9.2940545E-003	-5.7669347E-003	0
1.162493770632922E+003	9.4085848E-003	-5.6823026E-003	0
1.172493770380301E+003	9.3704080E-003	-5.7007559E-003	0
1.182493770127679E+003	9.2558777E-003	-5.6434856E-003	0
1.192493769875058E+003	9.4085848E-003	-5.6345775E-003	0
1.202493769622437E+003	9.3704080E-003	-5.5804881E-003	0
1.212493769369816E+003	9.4085848E-003	-5.5728527E-003	0
1.222493769117194E+003	9.3704080E-003	-5.5200369E-003	0
1.232493768864573E+003	9.4085848E-003	-5.4150415E-003	0
1.242493768611952E+003	9.2749661E-003	-5.4462221E-003	0
1.252493768359331E+003	9.3322312E-003	-5.3883153E-003	0
1.262493768106709E+003	9.3894964E-003	-5.3666797E-003	0
1.272493767854088E+003	9.4085848E-003	-5.3081373E-003	0
1.282493767601467E+003	9.3322312E-003	-5.2769566E-003	0
1.292493767348846E+003	9.3513196E-003	-5.3291363E-003	0
1.302493767096224E+003	9.3894964E-003	-5.2075963E-003	0
1.312493766843603E+003	9.4085848E-003	-5.2273222E-003	0
1.322493766590982E+003	9.3894964E-003	-5.1878700E-003	0
1.332493766338361E+003	9.3704080E-003	-5.2005965E-003	0
1.342493766085739E+003	9.2940545E-003	-5.1865969E-003	0
1.352493765833118E+003	9.3894964E-003	-5.0446941E-003	0
1.362493765580497E+003	9.4276723E-003	-5.0892378E-003	0
1.372493765327876E+003	9.3131429E-003	-5.0154226E-003	0
1.382493765075254E+003	9.3704080E-003	-5.0835107E-003	0
1.392493764822633E+003	9.3513196E-003	-4.9568792E-003	0
1.402493764570012E+003	9.3322312E-003	-4.8964280E-003	0
1.412493764317391E+003	9.4276723E-003	-4.9047000E-003	0
1.422493764064769E+003	9.4467606E-003	-4.9365172E-003	0
1.432493763812148E+003	9.3894964E-003	-4.8563387E-003	0
1.442493763559527E+003	9.3131429E-003	-4.8474297E-003	0
1.452493763306906E+003	9.3704080E-003	-4.8677926E-003	0
1.462493763054285E+003	9.2558777E-003	-4.8296130E-003	0
1.472493762801663E+003	9.3894964E-003	-4.8238859E-003	0
1.482493762549042E+003	9.3322312E-003	-4.8232493E-003	0
1.492493762296421E+003	9.4467606E-003	-4.7685243E-003	0
1.502493762043800E+003	9.3513196E-003	-4.7258898E-003	0
1.512493761791178E+003	9.3322312E-003	-4.7042547E-003	0
1.522493761538557E+003	9.3131429E-003	-4.6737106E-003	0
1.532493761285936E+003	9.2940545E-003	-4.6495297E-003	0
1.542493761033315E+003	9.4276723E-003	-4.6794373E-003	0
1.552493760780693E+003	9.2558777E-003	-4.6756193E-003	0
1.562493760528072E+003	9.3704080E-003	-4.5604431E-003	0
1.572493760275451E+003	9.3704080E-003	-4.5209900E-003	0
1.582493760022830E+003	9.2749661E-003	-4.5515341E-003	0
1.592493759770208E+003	9.3322312E-003	-4.4891727E-003	0
1.602493759517587E+003	9.3894964E-003	-4.4879005E-003	0
1.612493759264966E+003	9.2367893E-003	-4.5088367E-003	0
1.622493759012345E+003	9.3704080E-003	-4.5271753E-003	0
1.632493758759723E+003	9.3513196E-003	-4.4710129E-003	0
1.642493758507102E+003	9.3131429E-003	-4.4457968E-003	0
1.652493758254481E+003	9.3513196E-003	-4.4424860E-003	0
1.662493758001860E+003	9.3894964E-003	-4.4178427E-003	0
1.672493757749238E+003	9.4658490E-003	-4.4124941E-003	0
1.682493757496617E+003	9.2367893E-003	-4.4068270E-003	0
1.692493757243996E+003	9.3704080E-003	-4.3682391E-003	0
1.702493756991375E+003	9.3322312E-003	-4.3320078E-003	0
1.712493756738753E+003	9.2940545E-003	-4.3272953E-003	0
1.722493756486132E+003	9.3704080E-003	-4.3147514E-003	0
1.732493756233511E+003	9.4085848E-003	-4.2693503E-003	0
1.742493755980890E+003	9.3894964E-003	-4.2717061E-003	0
1.752493755728268E+003	9.2749661E-003	-4.2620911E-003	0
1.762493755475647E+003	9.3322312E-003	-4.2221663E-003	0
1.772493755223026E+003	9.2940545E-003	-4.2616455E-003	0
1.782493754970405E+003	9.3894964E-003	-4.2220387E-003	0
1.792493754717783E+003	9.4658490E-003	-4.2091119E-003	0
1.802493754465162E+003	9.4467606E-003	-4.1734539E-003	0
1.812493754212541E+003	9.2749661E-003	-4.1514849E-003	0
1.822493753959920E+003	9.3513196E-003	-4.1516125E-003	0
1.832493753707298E+003	9.2940545E-003	-4.1327644E-003	0
1.842493753454677E+003	9.3894964E-003	-4.1272882E-003	0
1.852493753202056E+003	9.2940545E-003	-4.0929667E-003	0
1.862493752949435E+003	9.3894964E-003	-4.0981243E-003	0
1.872493752696813E+003	9.3704080E-003	-4.0713805E-003	0
1.882493752444192E+003	9.2940545E-003	-4.0326649E-003	0
1.892493752191571E+003	9.2558777E-003	-4.0265522E-003	0
1.902493751938950E+003	9.2749661E-003	-4.0212669E-003	0
1.912493751686328E+003	9.3513196E-003	-4.0080859E-003	0
1.922493751433707E+003	9.2367893E-003	-4.0009543E-003	0
1.932493751181086E+003	9.2940545E-003	-3.9562536E-003	0
1.932665351176751E+003	9.4276723E-003	-3.9151190E-003	0
1.932665551176746E+003	9.3894964E-003	-3.9231423E-003	0