time/s	Ewe/V	I/mA	error	
6.005299848293362E+001	2.5125394E+000	-2.5025172E-002	0
6.011319848141284E+001	9.3995128E-003	-1.0088471E+000	0
6.011899848126632E+001	9.3804216E-003	-9.5835567E-001	0
6.012579848109453E+001	9.3613314E-003	-9.0746301E-001	0
6.013379848089244E+001	9.3422402E-003	-8.5625196E-001	0
6.014299848066003E+001	9.4567863E-003	-8.0578583E-001	0
6.015379848038720E+001	9.4567863E-003	-7.5537711E-001	0
6.016659848006384E+001	9.4376951E-003	-7.0468825E-001	0
6.018179847967986E+001	9.4758775E-003	-6.5415847E-001	0
6.019999847922008E+001	9.3231490E-003	-6.0383892E-001	0
6.022219847865927E+001	9.4949678E-003	-5.5355752E-001	0
6.024959847796708E+001	9.4949678E-003	-5.0349253E-001	0
6.028439847708796E+001	9.3995128E-003	-4.5333213E-001	0
6.032979847594106E+001	9.4949678E-003	-4.0320989E-001	0
6.039139847438491E+001	9.4186040E-003	-3.5315129E-001	0
6.047879847217700E+001	9.4949678E-003	-3.0314371E-001	0
6.061039846885251E+001	9.4567863E-003	-2.5313607E-001	0
6.082719846337568E+001	9.3804216E-003	-2.0311572E-001	0
6.123459845308389E+001	9.5140589E-003	-1.5306990E-001	0
6.225819842722558E+001	9.5331501E-003	-1.0306227E-001	0
6.505279835662805E+001	9.4758775E-003	-6.5292321E-002	0
6.505339835659834E+001	9.4186040E-003	-6.5349631E-002	0
7.505339810397709E+001	9.4186040E-003	-3.8457155E-002	0
8.505339785135584E+001	9.4567863E-003	-3.1421259E-002	0
9.505339759873459E+001	9.3422402E-003	-2.8089173E-002	0
1.050533973461133E+002	9.3995128E-003	-2.6098834E-002	0
1.150533970934921E+002	9.4186040E-003	-2.4693439E-002	0
1.250533968408708E+002	9.4567863E-003	-2.3666125E-002	0
1.350533965882496E+002	9.3995128E-003	-2.2834215E-002	0
1.450533963356283E+002	9.4949678E-003	-2.2127064E-002	0
1.550533960830071E+002	9.4567863E-003	-2.1510929E-002	0
1.650533958303859E+002	9.4376951E-003	-2.0978816E-002	0
1.750533955777646E+002	9.2849666E-003	-2.0500164E-002	0
1.850533953251434E+002	9.4567863E-003	-2.0063525E-002	0
1.950533950725221E+002	9.4567863E-003	-1.9646615E-002	0
2.050533948199009E+002	9.4186040E-003	-1.9268535E-002	0
2.150533945672796E+002	9.3422402E-003	-1.8939462E-002	0
2.250533943146584E+002	9.4567863E-003	-1.8611664E-002	0
2.350533940620371E+002	9.3995128E-003	-1.8318238E-002	0
2.450533938094159E+002	9.4376951E-003	-1.8043904E-002	0
2.550533935567946E+002	9.4567863E-003	-1.7768299E-002	0
2.650533933041734E+002	9.4567863E-003	-1.7506696E-002	0
2.750533930515521E+002	9.5331501E-003	-1.7257188E-002	0
2.850533927989309E+002	9.3804216E-003	-1.7017227E-002	0
2.950533925463096E+002	9.4949678E-003	-1.6792541E-002	0
3.050533922936884E+002	9.3995128E-003	-1.6594589E-002	0
3.150533920410671E+002	9.3995128E-003	-1.6388362E-002	0
3.250533917884459E+002	9.5522413E-003	-1.6205050E-002	0
3.350533915358246E+002	9.3613314E-003	-1.6000098E-002	0
3.450533912832034E+002	9.4567863E-003	-1.5819967E-002	0
3.550533910305821E+002	9.5713325E-003	-1.5623924E-002	0
3.650533907779609E+002	9.3995128E-003	-1.5476893E-002	0
3.750533905253396E+002	9.4758775E-003	-1.5285306E-002	0
3.850533902727184E+002	9.5140589E-003	-1.5121088E-002	0
3.950533900200971E+002	9.4758775E-003	-1.4961962E-002	0
4.050533897674759E+002	9.3613314E-003	-1.4823842E-002	0
4.150533895148546E+002	9.4186040E-003	-1.4679356E-002	0
4.250533892622334E+002	9.5140589E-003	-1.4534233E-002	0
4.350533890096121E+002	9.4376951E-003	-1.4368107E-002	0
4.450533887569909E+002	9.4758775E-003	-1.4242716E-002	0
4.550533885043697E+002	9.3804216E-003	-1.4104594E-002	0
4.650533882517484E+002	9.4758775E-003	-1.3977295E-002	0
4.750533879991272E+002	9.4186040E-003	-1.3846176E-002	0
4.850533877465059E+002	9.4758775E-003	-1.3750063E-002	0
4.950533874938847E+002	9.3804216E-003	-1.3618944E-002	0
5.050533872412634E+002	9.5140589E-003	-1.3496736E-002	0
5.150533869886422E+002	9.4567863E-003	-1.3393622E-002	0
5.250533867360209E+002	9.4186040E-003	-1.3273323E-002	0
5.350533864833997E+002	9.4376951E-003	-1.3165755E-002	0
5.450533862307784E+002	9.3995128E-003	-1.3056276E-002	0
5.550533859781572E+002	9.4186040E-003	-1.2954436E-002	0
5.650533857255359E+002	9.3995128E-003	-1.2849414E-002	0
5.750533854729147E+002	9.4376951E-003	-1.2739299E-002	0
5.850533852202934E+002	9.3995128E-003	-1.2635550E-002	0
5.950533849676722E+002	9.4758775E-003	-1.2540710E-002	0
6.050533847150509E+002	9.4567863E-003	-1.2442689E-002	0
6.150533844624297E+002	9.3804216E-003	-1.2335757E-002	0
6.250533842098084E+002	9.4376951E-003	-1.2246011E-002	0
6.350533839571872E+002	9.4758775E-003	-1.2158809E-002	0
6.450533837045659E+002	9.4376951E-003	-1.2049331E-002	0
6.550533834519447E+002	9.4186040E-003	-1.1964676E-002	0
6.650533831993234E+002	9.4758775E-003	-1.1875567E-002	0
6.750533829467022E+002	9.3804216E-003	-1.1766088E-002	0
6.850533826940809E+002	9.4376951E-003	-1.1697345E-002	0
6.950533824414597E+002	9.3804216E-003	-1.1601234E-002	0
7.050533821888384E+002	9.4758775E-003	-1.1514669E-002	0
7.150533819362172E+002	9.3804216E-003	-1.1419831E-002	0
7.250533816835959E+002	9.3995128E-003	-1.1337087E-002	0
7.350533814309747E+002	9.4567863E-003	-1.1258797E-002	0
7.450533811783534E+002	9.4376951E-003	-1.1181142E-002	0
7.550533809257322E+002	9.4758775E-003	-1.1072301E-002	0
7.650533806731110E+002	9.4949678E-003	-1.1006742E-002	0
7.750533804204897E+002	9.4567863E-003	-1.0939909E-002	0
7.850533801678685E+002	9.3995128E-003	-1.0848253E-002	0
7.950533799152472E+002	9.4186040E-003	-1.0783966E-002	0
8.050533796626260E+002	9.4758775E-003	-1.0692309E-002	0
8.150533794100047E+002	9.4376951E-003	-1.0618475E-002	0
8.250533791573835E+002	9.4758775E-003	-1.0547824E-002	0
8.350533789047622E+002	9.4376951E-003	-1.0474626E-002	0
8.450533786521410E+002	9.4949678E-003	-1.0387425E-002	0
8.550533783995197E+002	9.4376951E-003	-1.0340323E-002	0
8.650533781468985E+002	9.4186040E-003	-1.0255669E-002	0
8.750533778942772E+002	9.4949678E-003	-1.0179289E-002	0
8.850533776416560E+002	9.4376951E-003	-1.0108001E-002	0
8.950533773890347E+002	9.3995128E-003	-1.0026529E-002	0
9.050533771364135E+002	9.4186040E-003	-9.9692438E-003	0
9.150533768837922E+002	9.5331501E-003	-9.8973177E-003	0
9.250533766311710E+002	9.4949678E-003	-9.8203020E-003	0
9.350533763785497E+002	9.4758775E-003	-9.7674718E-003	0
9.450533761259285E+002	9.4376951E-003	-9.6853627E-003	0
9.550533758733072E+002	9.3422402E-003	-9.6395351E-003	0
9.650533756206860E+002	9.5713325E-003	-9.5612453E-003	0
9.750533753680647E+002	9.4376951E-003	-9.4874110E-003	0
9.850533751154435E+002	9.4567863E-003	-9.4186692E-003	0
9.950533748628222E+002	9.4186040E-003	-9.3480172E-003	0
1.005053374610201E+003	9.3995128E-003	-9.2652719E-003	0
1.015053374357580E+003	9.4567863E-003	-9.2143519E-003	0
1.025053374104958E+003	9.4567863E-003	-9.1653420E-003	0
1.035053373852337E+003	9.3995128E-003	-9.0940529E-003	0
1.045053373599716E+003	9.4567863E-003	-9.0310397E-003	0
1.055053373347095E+003	9.4376951E-003	-8.9578414E-003	0
1.065053373094474E+003	9.5713325E-003	-8.8910088E-003	0
1.075053372841852E+003	9.4567863E-003	-8.8375425E-003	0
1.085053372589231E+003	9.4376951E-003	-8.7987166E-003	0
1.095053372336610E+003	9.4376951E-003	-8.7115159E-003	0
1.105053372083989E+003	9.3995128E-003	-8.6485017E-003	0
1.115053371831367E+003	9.4567863E-003	-8.6128581E-003	0
1.125053371578746E+003	9.4186040E-003	-8.5262936E-003	0
1.135053371326125E+003	9.4376951E-003	-8.4855575E-003	0
1.145053371073504E+003	9.4567863E-003	-8.4308181E-003	0
1.155053370820882E+003	9.3613314E-003	-8.3919922E-003	0
1.165053370568261E+003	9.3613314E-003	-8.3143376E-003	0
1.175053370315640E+003	9.4567863E-003	-8.2621453E-003	0
1.185053370063019E+003	9.3804216E-003	-8.2099522E-003	0
1.195053369810397E+003	9.4758775E-003	-8.1723994E-003	0
1.205053369557776E+003	9.3995128E-003	-8.0775600E-003	0
1.215053369305155E+003	9.4949678E-003	-8.0380971E-003	0
1.225053369052534E+003	9.3231490E-003	-7.9859039E-003	0
1.235053368799912E+003	9.4186040E-003	-7.9534417E-003	0
1.245053368547291E+003	9.4567863E-003	-7.8999754E-003	0
1.255053368294670E+003	9.4186040E-003	-7.8445999E-003	0
1.265053368042049E+003	9.4567863E-003	-7.8013176E-003	0
1.275053367789427E+003	9.3995128E-003	-7.7567622E-003	0
1.285053367536806E+003	9.4186040E-003	-7.7020247E-003	0
1.295053367284185E+003	9.4567863E-003	-7.6600150E-003	0
1.305053367031564E+003	9.3995128E-003	-7.6084589E-003	0
1.315053366778942E+003	9.4758775E-003	-7.5747236E-003	0
1.325053366526321E+003	9.3995128E-003	-7.5250766E-003	0
1.335053366273700E+003	9.4186040E-003	-7.4512423E-003	0
1.345053366021079E+003	9.3613314E-003	-7.4251457E-003	0
1.355053365768457E+003	9.3422402E-003	-7.3684976E-003	0
1.365053365515836E+003	9.4567863E-003	-7.3290337E-003	0
1.375053365263215E+003	9.3995128E-003	-7.2800238E-003	0
1.385053365010594E+003	9.3804216E-003	-7.2462889E-003	0
1.395053364757972E+003	9.4758775E-003	-7.1877302E-003	0
1.405053364505351E+003	9.4758775E-003	-7.1571781E-003	0
1.415053364252730E+003	9.3995128E-003	-7.1202614E-003	0
1.425053364000109E+003	9.4567863E-003	-7.0610670E-003	0
1.435053363747487E+003	9.4376951E-003	-7.0413356E-003	0
1.445053363494866E+003	9.4949678E-003	-6.9967802E-003	0
1.455053363242245E+003	9.3995128E-003	-6.9477698E-003	0
1.465053362989624E+003	9.3804216E-003	-6.9006686E-003	0
1.475053362737002E+003	9.4376951E-003	-6.8707522E-003	0
1.485053362484381E+003	9.4186040E-003	-6.8440195E-003	0
1.495053362231760E+003	9.5140589E-003	-6.7988285E-003	0
1.505053361979139E+003	9.5331501E-003	-6.7549092E-003	0
1.515053361726517E+003	9.3422402E-003	-6.7313584E-003	0
1.525053361473896E+003	9.4567863E-003	-6.6753468E-003	0
1.535053361221275E+003	9.4949678E-003	-6.6473405E-003	0
1.545053360968654E+003	9.4567863E-003	-6.6148792E-003	0
1.555053360716032E+003	9.5331501E-003	-6.5868725E-003	0
1.565053360463411E+003	9.4758775E-003	-6.5429541E-003	0
1.575053360210790E+003	9.4186040E-003	-6.4983987E-003	0
1.585053359958169E+003	9.4376951E-003	-6.4678472E-003	0
1.595053359705547E+003	9.4186040E-003	-6.4239283E-003	0
1.605053359452926E+003	9.4376951E-003	-6.3933767E-003	0
1.615053359200305E+003	9.4376951E-003	-6.3577322E-003	0
1.625053358947684E+003	9.5140589E-003	-6.3208146E-003	0
1.635053358695062E+003	9.3995128E-003	-6.2889899E-003	0
1.645053358442441E+003	9.2467852E-003	-6.2552555E-003	0
1.655053358189820E+003	9.4567863E-003	-6.2138829E-003	0
1.665053357937199E+003	9.4949678E-003	-6.1846040E-003	0
1.675053357684577E+003	9.4758775E-003	-6.1546885E-003	0
1.685053357431956E+003	9.4567863E-003	-6.1247731E-003	0
1.695053357179335E+003	9.5331501E-003	-6.0827639E-003	0
1.705053356926714E+003	9.4758775E-003	-6.0471199E-003	0
1.715053356674092E+003	9.3422402E-003	-6.0388451E-003	0
1.725053356421471E+003	9.3804216E-003	-5.9847422E-003	0
1.735053356168850E+003	9.5522413E-003	-5.9618279E-003	0
1.745053355916229E+003	9.4567863E-003	-5.9249112E-003	0
1.755053355663607E+003	9.4567863E-003	-5.8854483E-003	0
1.765053355410986E+003	9.4949678E-003	-5.8739907E-003	0
1.775053355158365E+003	9.3613314E-003	-5.8160694E-003	0
1.785053354905744E+003	9.4949678E-003	-5.8109774E-003	0
1.795053354653122E+003	9.4758775E-003	-5.7600574E-003	0
1.805053354400501E+003	9.4758775E-003	-5.7435082E-003	0
1.815053354147880E+003	9.4186040E-003	-5.7161390E-003	0
1.825053353895259E+003	9.4567863E-003	-5.6868591E-003	0
1.835053353642637E+003	9.3804216E-003	-5.6677647E-003	0
1.845053353390016E+003	9.4758775E-003	-5.6206635E-003	0
1.855053353137395E+003	9.4186040E-003	-5.5786544E-003	0
1.865053352884774E+003	9.4567863E-003	-5.5671977E-003	0
1.875053352632152E+003	9.5140589E-003	-5.5347360E-003	0
1.885053352379531E+003	9.4186040E-003	-5.4908171E-003	0
1.895053352126910E+003	9.3995128E-003	-5.4653566E-003	0
1.905053351874289E+003	9.4758775E-003	-5.4373513E-003	0
1.915053351621667E+003	9.3613314E-003	-5.4195286E-003	0
1.925053351369046E+003	9.3231490E-003	-5.4087085E-003	0
1.935053351116425E+003	9.3995128E-003	-5.3717908E-003	0
1.945053350863804E+003	9.4758775E-003	-5.3234170E-003	0
1.955053350611182E+003	9.3995128E-003	-5.3132330E-003	0
1.965053350358561E+003	9.4567863E-003	-5.2820444E-003	0
1.975053350105940E+003	9.3613314E-003	-5.2521289E-003	0
1.985053349853319E+003	9.4567863E-003	-5.2266684E-003	0
1.995053349600697E+003	9.4758775E-003	-5.1884786E-003	0
2.005053349348076E+003	9.4949678E-003	-5.1782951E-003	0
2.015053349095455E+003	9.3995128E-003	-5.1477426E-003	0
2.025053348842834E+003	9.4758775E-003	-5.1159174E-003	0
2.035053348590212E+003	9.4567863E-003	-5.0942767E-003	0
2.045053348337591E+003	9.4567863E-003	-5.0592688E-003	0
2.055053348084970E+003	9.3231490E-003	-5.0516305E-003	0
2.065053347832349E+003	9.4186040E-003	-5.0159865E-003	0
2.075053347579727E+003	9.3613314E-003	-4.9886168E-003	0
2.085053347327106E+003	9.4758775E-003	-4.9650664E-003	0
2.095053347074485E+003	9.3804216E-003	-4.9408791E-003	0
2.105053346821864E+003	9.4758775E-003	-4.9084178E-003	0
2.115053346569242E+003	9.4949678E-003	-4.8912321E-003	0
2.125053346316621E+003	9.4567863E-003	-4.8657721E-003	0
2.135053346064000E+003	9.3995128E-003	-4.8409486E-003	0
2.145053345811379E+003	9.4949678E-003	-4.8173983E-003	0
2.155053345558757E+003	9.3804216E-003	-4.7830273E-003	0
2.165053345306136E+003	9.4567863E-003	-4.7486559E-003	0
2.175053345053515E+003	9.4186040E-003	-4.7365623E-003	0
2.185053344800894E+003	9.3995128E-003	-4.7066468E-003	0
2.195053344548272E+003	9.4949678E-003	-4.6729124E-003	0
2.205053344295651E+003	9.4186040E-003	-4.6748216E-003	0
2.215053344043030E+003	9.4567863E-003	-4.6455427E-003	0
2.225053343790409E+003	9.4567863E-003	-4.6194461E-003	0
2.235053343537787E+003	9.4949678E-003	-4.5984415E-003	0
2.245053343285166E+003	9.3995128E-003	-4.5787101E-003	0
2.255053343032545E+003	9.3422402E-003	-4.5405203E-003	0
2.265053342779924E+003	9.4758775E-003	-4.5239711E-003	0
2.275053342527302E+003	9.4949678E-003	-4.5055123E-003	0
2.285053342274681E+003	9.4376951E-003	-4.4893092E-003	0
2.295053342022060E+003	9.4758775E-003	-4.4611706E-003	0
2.305053341769439E+003	9.4758775E-003	-4.4415626E-003	0
2.315053341516817E+003	9.3613314E-003	-4.4376790E-003	0
2.325053341264196E+003	9.3995128E-003	-4.4121505E-003	0
2.335053341011575E+003	9.4949678E-003	-4.3724892E-003	0
2.345053340758954E+003	9.4567863E-003	-4.3651038E-003	0
2.355053340506332E+003	9.4186040E-003	-4.3369657E-003	0
2.365053340253711E+003	9.3422402E-003	-4.3045613E-003	0
2.375053340001090E+003	9.4949678E-003	-4.2896005E-003	0
2.385053339748469E+003	9.3995128E-003	-4.2710113E-003	0
2.395053339495847E+003	9.4567863E-003	-4.2570056E-003	0
2.405053339243226E+003	9.4949678E-003	-4.2333230E-003	0
2.415053338990605E+003	9.4376951E-003	-4.2142244E-003	0
2.425053338737984E+003	9.4186040E-003	-4.1925157E-003	0
2.435053338485362E+003	9.4186040E-003	-4.1718255E-003	0
2.445053338232741E+003	9.3804216E-003	-4.1489070E-003	0
2.455053337980120E+003	9.4567863E-003	-4.1318452E-003	0
2.465053337727499E+003	9.4949678E-003	-4.1041523E-003	0
2.475053337474877E+003	9.4758775E-003	-4.0803426E-003	0
2.485053337222256E+003	9.4567863E-003	-4.0606069E-003	0
2.495053336969635E+003	9.3995128E-003	-4.0558325E-003	0
2.505053336717014E+003	9.3613314E-003	-4.0174443E-003	0
2.515053336464392E+003	9.3613314E-003	-3.9996188E-003	0
2.525053336211771E+003	9.3995128E-003	-3.9910879E-003	0
2.535053335959150E+003	9.4758775E-003	-3.9690612E-003	0
2.545053335706529E+003	9.4376951E-003	-3.9469064E-003	0
2.551818135535636E+003	9.4567863E-003	-3.9189588E-003	0
2.551818335535630E+003	9.4567863E-003	-3.9332826E-003	0