time/s	Ewe/V	I/mA	error	
6.005299848293362E+001	2.5526204E+000	-2.5031064E-002	0
6.017319847989711E+001	9.4276723E-003	-1.0969136E+001	0
6.017359847988700E+001	9.4085848E-003	-1.0910589E+001	0
6.017399847987690E+001	9.4658490E-003	-1.0850769E+001	0
6.017439847986680E+001	9.3704080E-003	-1.0785858E+001	0
6.017479847985669E+001	9.3704080E-003	-1.0733676E+001	0
6.017519847984659E+001	9.2940545E-003	-1.0667491E+001	0
6.017559847983648E+001	9.4467606E-003	-1.0607673E+001	0
6.017599847982638E+001	9.2749661E-003	-1.0547215E+001	0
6.017639847981627E+001	9.3704080E-003	-1.0495032E+001	0
6.017679847980617E+001	9.3704080E-003	-1.0440303E+001	0
6.017719847979606E+001	9.3894964E-003	-1.0379210E+001	0
6.017759847978596E+001	9.5612910E-003	-1.0325754E+001	0
6.017799847977585E+001	9.4085848E-003	-1.0267843E+001	0
6.017859847976069E+001	9.4085848E-003	-1.0194023E+001	0
6.017899847975059E+001	9.3513196E-003	-1.0135476E+001	0
6.017959847973543E+001	9.3322312E-003	-1.0051475E+001	0
6.018019847972027E+001	9.3704080E-003	-9.9731998E+000	0
6.018059847971017E+001	9.4085848E-003	-9.9216518E+000	0
6.018099847970007E+001	9.3704080E-003	-9.8707409E+000	0
6.018139847968996E+001	9.3894964E-003	-9.8172855E+000	0
6.018179847967986E+001	9.3894964E-003	-9.7670116E+000	0
6.018239847966470E+001	9.3894964E-003	-9.6963730E+000	0
6.018299847964954E+001	9.4658490E-003	-9.6212797E+000	0
6.018359847963438E+001	9.4276723E-003	-9.5506411E+000	0
6.018419847961923E+001	9.3131429E-003	-9.4749126E+000	0
6.018479847960407E+001	9.4658490E-003	-9.4030008E+000	0
6.018539847958891E+001	9.3513196E-003	-9.3342714E+000	0
6.018599847957375E+001	9.4276723E-003	-9.2623606E+000	0
6.018659847955860E+001	9.3704080E-003	-9.1949034E+000	0
6.018719847954344E+001	9.2558777E-003	-9.1299925E+000	0
6.018779847952828E+001	9.2940545E-003	-9.0561733E+000	0
6.018839847951313E+001	9.3704080E-003	-8.9957170E+000	0
6.018899847949797E+001	9.4085848E-003	-8.9250784E+000	0
6.018959847948281E+001	9.3513196E-003	-8.8671675E+000	0
6.019019847946765E+001	9.5040258E-003	-8.8016205E+000	0
6.019079847945250E+001	9.4658490E-003	-8.7354364E+000	0
6.019139847943734E+001	9.4085848E-003	-8.6717978E+000	0
6.019199847942218E+001	9.3894964E-003	-8.6126146E+000	0
6.019259847940702E+001	9.3704080E-003	-8.5502491E+000	0
6.019319847939187E+001	9.3131429E-003	-8.4891577E+000	0
6.019399847937166E+001	9.3894964E-003	-8.4229736E+000	0
6.019459847935650E+001	9.2940545E-003	-8.3625164E+000	0
6.019519847934134E+001	9.4085848E-003	-8.3020601E+000	0
6.019579847932619E+001	9.4085848E-003	-8.2479677E+000	0
6.019639847931103E+001	9.3704080E-003	-8.1824217E+000	0
6.019719847929082E+001	9.3513196E-003	-8.1257820E+000	0
6.019779847927566E+001	9.4276723E-003	-8.0672359E+000	0
6.019839847926050E+001	9.3704080E-003	-8.0080528E+000	0
6.019899847924535E+001	9.3894964E-003	-7.9552326E+000	0
6.019959847923019E+001	9.4085848E-003	-7.9005032E+000	0
6.020039847920998E+001	9.3704080E-003	-7.8330479E+000	0
6.020119847918977E+001	9.3513196E-003	-7.7674994E+000	0
6.020199847916956E+001	9.3704080E-003	-7.6987710E+000	0
6.020279847914935E+001	9.3894964E-003	-7.6364055E+000	0
6.020359847912914E+001	9.3894964E-003	-7.5695858E+000	0
6.020439847910893E+001	9.3894964E-003	-7.4957652E+000	0
6.020539847908367E+001	9.4658490E-003	-7.4232178E+000	0
6.020619847906346E+001	9.4085848E-003	-7.3703985E+000	0
6.020679847904830E+001	9.3704080E-003	-7.3124871E+000	0
6.020759847902809E+001	9.4085848E-003	-7.2615771E+000	0
6.020839847900788E+001	9.4276723E-003	-7.1985750E+000	0
6.020919847898767E+001	9.3131429E-003	-7.1476645E+000	0
6.020999847896746E+001	9.3131429E-003	-7.0802083E+000	0
6.021079847894725E+001	9.3704080E-003	-7.0299339E+000	0
6.021159847892704E+001	9.4276723E-003	-6.9707499E+000	0
6.021239847890683E+001	9.4467606E-003	-6.9185672E+000	0
6.021319847888662E+001	9.3322312E-003	-6.8663840E+000	0
6.021399847886642E+001	9.3513196E-003	-6.8072009E+000	0
6.021479847884621E+001	9.2558777E-003	-6.7562895E+000	0
6.021559847882600E+001	9.2940545E-003	-6.7034698E+000	0
6.021659847880073E+001	9.3894964E-003	-6.6411052E+000	0
6.021739847878052E+001	9.4849374E-003	-6.5838308E+000	0
6.021839847875526E+001	9.3322312E-003	-6.5227380E+000	0
6.021939847873000E+001	9.4276723E-003	-6.4648271E+000	0
6.022019847870979E+001	9.2940545E-003	-6.4145527E+000	0
6.022119847868453E+001	9.3513196E-003	-6.3566422E+000	0
6.022219847865927E+001	9.4276723E-003	-6.2980952E+000	0
6.022319847863400E+001	9.3894964E-003	-6.2401848E+000	0
6.022419847860874E+001	9.2749661E-003	-6.1829104E+000	0
6.022539847857843E+001	9.4085848E-003	-6.1167264E+000	0
6.022639847855316E+001	9.3513196E-003	-6.0658154E+000	0
6.022739847852790E+001	9.2940545E-003	-6.0072689E+000	0
6.022839847850264E+001	9.3894964E-003	-5.9550853E+000	0
6.022959847847233E+001	9.3704080E-003	-5.8927202E+000	0
6.023079847844201E+001	9.3894964E-003	-5.8278093E+000	0
6.023199847841170E+001	9.2749661E-003	-5.7730803E+000	0
6.023319847838138E+001	9.4085848E-003	-5.7177153E+000	0
6.023419847835612E+001	9.4085848E-003	-5.6661682E+000	0
6.023539847832581E+001	9.4085848E-003	-5.6082578E+000	0
6.023659847829549E+001	9.3131429E-003	-5.5541649E+000	0
6.023779847826518E+001	9.3322312E-003	-5.4975271E+000	0
6.023899847823486E+001	9.3131429E-003	-5.4434347E+000	0
6.024039847819950E+001	9.3894964E-003	-5.3861604E+000	0
6.024159847816918E+001	9.4085848E-003	-5.3314319E+000	0
6.024279847813887E+001	9.4276723E-003	-5.2773390E+000	0
6.024439847809845E+001	9.4085848E-003	-5.2194285E+000	0
6.024559847806813E+001	9.3894964E-003	-5.1646996E+000	0
6.024699847803277E+001	9.2940545E-003	-5.1131525E+000	0
6.024819847800245E+001	9.3704080E-003	-5.0590601E+000	0
6.024979847796203E+001	9.4276723E-003	-5.0011492E+000	0
6.025139847792161E+001	9.3704080E-003	-4.9381475E+000	0
6.025319847787614E+001	9.4467606E-003	-4.8808732E+000	0
6.025479847783572E+001	9.4085848E-003	-4.8178716E+000	0
6.025639847779530E+001	9.3894964E-003	-4.7663245E+000	0
6.025779847775993E+001	9.3131429E-003	-4.7135053E+000	0
6.025939847771951E+001	9.4085848E-003	-4.6606851E+000	0
6.026119847767404E+001	9.3131429E-003	-4.6021376E+000	0
6.026279847763362E+001	9.4276723E-003	-4.5499549E+000	0
6.026459847758815E+001	9.3131429E-003	-4.4984078E+000	0
6.026619847754773E+001	9.3322312E-003	-4.4481339E+000	0
6.026799847750226E+001	9.2940545E-003	-4.3959503E+000	0
6.026979847745679E+001	9.5231142E-003	-4.3450403E+000	0
6.027159847741132E+001	9.3513196E-003	-4.2915840E+000	0
6.027299847737595E+001	9.3322312E-003	-4.4011993E+000	0
6.030319847661303E+001	9.3513196E-003	-3.5709095E+000	0
6.030599847654230E+001	9.4085848E-003	-3.5182283E+000	0
6.030879847647157E+001	9.3131429E-003	-3.4656746E+000	0
6.031159847640083E+001	9.3704080E-003	-3.4152203E+000	0
6.031459847632505E+001	9.2940545E-003	-3.3631754E+000	0
6.031779847624421E+001	9.2940545E-003	-3.3091583E+000	0
6.032099847616337E+001	9.3322312E-003	-3.2569861E+000	0
6.032419847608253E+001	9.3894964E-003	-3.2065315E+000	0
6.032759847599664E+001	9.3131429E-003	-3.1542962E+000	0
6.033119847590569E+001	9.4658490E-003	-3.1011696E+000	0
6.033479847581475E+001	9.4658490E-003	-3.0499520E+000	0
6.033859847571875E+001	9.2749661E-003	-2.9974618E+000	0
6.034239847562276E+001	9.5040258E-003	-2.9466894E+000	0
6.034639847552171E+001	9.4276723E-003	-2.8954718E+000	0
6.035059847541561E+001	9.3894964E-003	-2.8430448E+000	0
6.035479847530951E+001	9.4085848E-003	-2.7928452E+000	0
6.035939847519330E+001	9.2558777E-003	-2.7402277E+000	0
6.036399847507710E+001	9.4085848E-003	-2.6890736E+000	0
6.036899847495079E+001	9.3513196E-003	-2.6365197E+000	0
6.037399847482448E+001	9.4849374E-003	-2.5857475E+000	0
6.037919847469311E+001	9.4276723E-003	-2.5342114E+000	0
6.038459847455670E+001	9.4085848E-003	-2.4840753E+000	0
6.039039847441018E+001	9.3131429E-003	-2.4320307E+000	0
6.039639847425860E+001	9.3322312E-003	-2.3804309E+000	0
6.040259847410198E+001	9.2940545E-003	-2.3295951E+000	0
6.040899847394030E+001	9.3704080E-003	-2.2790771E+000	0
6.041579847376852E+001	9.4276723E-003	-2.2283685E+000	0
6.042299847358663E+001	9.4276723E-003	-2.1771507E+000	0
6.043039847339969E+001	9.4276723E-003	-2.1259966E+000	0
6.043819847320265E+001	9.4085848E-003	-2.0759876E+000	0
6.044639847299550E+001	9.2749661E-003	-2.0254061E+000	0
6.045519847277319E+001	9.4658490E-003	-1.9750791E+000	0
6.046439847254078E+001	9.4085848E-003	-1.9244974E+000	0
6.047399847229826E+001	9.4467606E-003	-1.8732162E+000	0
6.048439847203554E+001	9.4658490E-003	-1.8227618E+000	0
6.049519847176271E+001	9.3894964E-003	-1.7720532E+000	0
6.050699847146461E+001	9.3894964E-003	-1.7217261E+000	0
6.051899847116147E+001	9.4658490E-003	-1.6714628E+000	0
6.053239847082295E+001	9.4085848E-003	-1.6207540E+000	0
6.054639847046928E+001	9.2177009E-003	-1.5705541E+000	0
6.056179847008025E+001	9.3704080E-003	-1.5190185E+000	0
6.057799846967100E+001	9.3704080E-003	-1.4688187E+000	0
6.059579846922134E+001	9.3704080E-003	-1.4180462E+000	0
6.061459846874641E+001	9.4658490E-003	-1.3673376E+000	0
6.063559846821590E+001	9.3131429E-003	-1.3170741E+000	0
6.065799846765003E+001	9.3131429E-003	-1.2663018E+000	0
6.068259846702858E+001	9.3513196E-003	-1.2161657E+000	0
6.070959846634651E+001	9.4467606E-003	-1.1661568E+000	0
6.073959846558864E+001	9.3322312E-003	-1.1157660E+000	0
6.077259846475499E+001	9.4467606E-003	-1.0655028E+000	0
6.080979846381524E+001	9.3322312E-003	-1.0154938E+000	0
6.085119846276939E+001	9.3704080E-003	-9.6535766E-001	0
6.089799846158712E+001	9.3704080E-003	-9.1534877E-001	0
6.095179846022802E+001	9.3131429E-003	-8.6457640E-001	0
6.101479845863651E+001	9.2940545E-003	-8.1437665E-001	0
6.108699845681258E+001	9.4085848E-003	-7.6366794E-001	0
6.117219845466025E+001	9.4085848E-003	-7.1334094E-001	0
6.127279845211888E+001	9.3322312E-003	-6.6307753E-001	0
6.139379844906216E+001	9.3322312E-003	-6.1275053E-001	0
6.154219844531326E+001	9.4085848E-003	-5.6255078E-001	0
6.172699844064482E+001	9.4276723E-003	-5.1254189E-001	0
6.196139843472338E+001	9.3513196E-003	-4.6246937E-001	0
6.229019842641719E+001	9.3894964E-003	-4.1235289E-001	0
6.272059841554437E+001	9.3894964E-003	-3.6230609E-001	0
6.333799839994754E+001	9.4849374E-003	-3.1225923E-001	0
6.429179837585252E+001	9.3894964E-003	-2.6222521E-001	0
6.505279835662805E+001	9.3322312E-003	-2.3568678E-001	0
6.505339835659834E+001	9.4467606E-003	-2.3529845E-001	0
6.735099829855608E+001	9.2940545E-003	-1.8529622E-001	0
7.246139816945652E+001	9.3704080E-003	-1.3528123E-001	0
8.246139791683527E+001	9.3131429E-003	-9.6928142E-002	0
9.246139766421402E+001	9.4467606E-003	-7.6704450E-002	0
1.024613974115928E+002	9.4085848E-003	-6.1872464E-002	0
1.124613971589715E+002	9.3322312E-003	-5.2928712E-002	0
1.224613969063503E+002	9.3322312E-003	-4.6302058E-002	0
1.324613966537290E+002	9.3513196E-003	-4.1423358E-002	0
1.424613964011078E+002	9.2558777E-003	-3.7459623E-002	0
1.524613961484865E+002	9.3894964E-003	-3.4230221E-002	0
1.624613958958653E+002	9.3894964E-003	-3.1552520E-002	0
1.724613956432440E+002	9.4085848E-003	-2.9371798E-002	0
1.824613953906228E+002	9.4467606E-003	-2.7428430E-002	0
1.924613951380015E+002	9.2749661E-003	-2.5800049E-002	0
2.024613948853803E+002	9.3322312E-003	-2.4354296E-002	0
2.124613946327590E+002	9.2749661E-003	-2.3088625E-002	0
2.224613943801378E+002	9.3894964E-003	-2.1924766E-002	0
2.324613941275165E+002	9.3322312E-003	-2.0951807E-002	0
2.424613938748953E+002	9.4085848E-003	-1.9997304E-002	0
2.524613936222740E+002	9.3894964E-003	-1.9143978E-002	0
2.624613933696528E+002	9.4085848E-003	-1.8494917E-002	0
2.724613931170315E+002	9.3322312E-003	-1.7788585E-002	0
2.824613928644103E+002	9.3322312E-003	-1.7129978E-002	0
2.924613926117891E+002	9.2940545E-003	-1.6512096E-002	0
3.024613923591678E+002	9.3513196E-003	-1.6020209E-002	0
3.124613921065466E+002	9.4658490E-003	-1.5394691E-002	0
3.224613918539253E+002	9.4085848E-003	-1.4976619E-002	0
3.324613916013041E+002	9.4276723E-003	-1.4514002E-002	0
3.424613913486828E+002	9.3131429E-003	-1.4115657E-002	0
3.524613910960616E+002	9.3894964E-003	-1.3730037E-002	0
3.624613908434403E+002	9.3322312E-003	-1.3462139E-002	0
3.724613905908191E+002	9.3131429E-003	-1.3060611E-002	0
3.824613903381978E+002	9.4467606E-003	-1.2664176E-002	0
3.924613900855766E+002	9.3704080E-003	-1.2427459E-002	0
4.024613898329553E+002	9.3322312E-003	-1.2188833E-002	0
4.124613895803341E+002	9.2940545E-003	-1.1897392E-002	0
4.224613893277128E+002	9.3322312E-003	-1.1562042E-002	0
4.324613890750916E+002	9.4085848E-003	-1.1308781E-002	0
4.424613888224703E+002	9.3704080E-003	-1.1060609E-002	0
4.524613885698491E+002	9.3131429E-003	-1.0873527E-002	0
4.624613883172278E+002	9.4276723E-003	-1.0652083E-002	0
4.724613880646066E+002	9.3513196E-003	-1.0375913E-002	0
4.824613878119853E+002	9.4658490E-003	-1.0255009E-002	0
4.924613875593641E+002	9.3513196E-003	-9.9705672E-003	0
5.024613873067428E+002	9.4085848E-003	-9.7809387E-003	0
5.124613870541216E+002	9.3513196E-003	-9.7287595E-003	0
5.224613868015003E+002	9.3704080E-003	-9.5079504E-003	0
5.324613865488791E+002	9.3322312E-003	-9.3711400E-003	0
5.424613862962578E+002	9.3131429E-003	-9.1929650E-003	0
5.524613860436366E+002	9.3704080E-003	-9.0491530E-003	0
5.624613857910153E+002	9.4467606E-003	-8.8130729E-003	0
5.724613855383941E+002	9.3131429E-003	-8.8334354E-003	0
5.824613852857728E+002	9.3513196E-003	-8.5680839E-003	0
5.924613850331516E+002	9.3894964E-003	-8.4669059E-003	0
6.024613847805304E+002	9.3322312E-003	-8.4185451E-003	0
6.124613845279091E+002	9.3704080E-003	-8.2543707E-003	0
6.224613842752879E+002	9.3322312E-003	-8.0857417E-003	0
6.324613840226666E+002	9.3704080E-003	-7.9202941E-003	0
6.424613837700454E+002	9.3131429E-003	-7.8795692E-003	0
6.524613835174241E+002	9.3894964E-003	-7.8012990E-003	0
6.624613832648029E+002	9.2940545E-003	-7.7465749E-003	0
6.724613830121816E+002	9.4085848E-003	-7.5334017E-003	0
6.824613827595604E+002	9.3513196E-003	-7.4774045E-003	0
6.924613825069391E+002	9.3894964E-003	-7.4608601E-003	0
7.024613822543179E+002	9.3704080E-003	-7.2807772E-003	0
7.124613820016966E+002	9.3513196E-003	-7.1191476E-003	0
7.224613817490754E+002	9.3322312E-003	-7.0720590E-003	0
7.324613814964541E+002	9.3704080E-003	-7.0001530E-003	0
7.424613812438329E+002	9.3513196E-003	-6.8391603E-003	0
7.524613809912116E+002	9.4085848E-003	-6.7507094E-003	0
7.624613807385904E+002	9.3131429E-003	-6.8060705E-003	0
7.724613804859691E+002	9.4276723E-003	-6.6743488E-003	0
7.824613802333479E+002	9.4276723E-003	-6.5540816E-003	0
7.924613799807266E+002	9.3513196E-003	-6.4522680E-003	0
8.024613797281054E+002	9.3513196E-003	-6.4968113E-003	0
8.124613794754841E+002	9.3894964E-003	-6.4223600E-003	0
8.224613792228629E+002	9.4085848E-003	-6.2702759E-003	0
8.324613789702416E+002	9.3131429E-003	-6.2270053E-003	0
8.424613787176204E+002	9.3513196E-003	-6.1366460E-003	0
8.524613784649991E+002	9.3894964E-003	-6.0259239E-003	0
8.624613782123779E+002	9.3894964E-003	-6.0322867E-003	0
8.724613779597566E+002	9.3513196E-003	-5.8967476E-003	0
8.824613777071354E+002	9.4085848E-003	-5.9489268E-003	0
8.924613774545142E+002	9.4085848E-003	-5.8948384E-003	0
9.024613772018929E+002	9.3704080E-003	-5.7141189E-003	0
9.124613769492717E+002	9.3894964E-003	-5.7866611E-003	0
9.224613766966504E+002	9.2940545E-003	-5.5989423E-003	0
9.324613764440292E+002	9.3704080E-003	-5.5302181E-003	0
9.424613761914079E+002	9.2749661E-003	-5.5467631E-003	0
9.524613759387867E+002	9.3513196E-003	-5.4723118E-003	0
9.624613756861654E+002	9.3322312E-003	-5.3717704E-003	0
9.724613754335442E+002	9.3322312E-003	-5.3456808E-003	0
9.824613751809229E+002	9.3513196E-003	-5.3361356E-003	0
9.924613749283017E+002	9.3513196E-003	-5.2782292E-003	0
1.002461374675680E+003	9.3513196E-003	-5.3081373E-003	0
1.012461374423059E+003	9.4276723E-003	-5.1076910E-003	0
1.022461374170438E+003	9.4085848E-003	-5.1522348E-003	0
1.032461373917817E+003	9.2749661E-003	-5.1490529E-003	0
1.042461373665195E+003	9.3894964E-003	-5.0351489E-003	0
1.052461373412574E+003	9.4467606E-003	-4.8900642E-003	0
1.062461373159953E+003	9.2749661E-003	-4.9282447E-003	0
1.072461372907332E+003	9.3894964E-003	-4.9053365E-003	0
1.082461372654710E+003	9.4467606E-003	-4.8938822E-003	0
1.092461372402089E+003	9.4467606E-003	-4.7895238E-003	0
1.102461372149468E+003	9.4658490E-003	-4.7863419E-003	0
1.112461371896847E+003	9.4849374E-003	-4.7640698E-003	0
1.122461371644225E+003	9.3513196E-003	-4.6832557E-003	0
1.132461371391604E+003	9.4085848E-003	-4.5324438E-003	0
1.142461371138983E+003	9.3704080E-003	-4.6018041E-003	0
1.152461370886362E+003	9.3513196E-003	-4.5680790E-003	0
1.162461370633740E+003	9.2940545E-003	-4.5699878E-003	0
1.172461370381119E+003	9.4085848E-003	-4.4954643E-003	0
1.182461370128498E+003	9.4849374E-003	-4.4621616E-003	0
1.192461369875877E+003	9.3322312E-003	-4.4072727E-003	0
1.202461369623255E+003	9.3131429E-003	-4.3947925E-003	0
1.212461369370634E+003	9.3513196E-003	-4.3616802E-003	0
1.222461369118013E+003	9.2749661E-003	-4.3217554E-003	0
1.232461368865392E+003	9.3894964E-003	-4.2859698E-003	0
1.242461368612770E+003	9.3322312E-003	-4.2546410E-003	0
1.252461368360149E+003	9.3513196E-003	-4.2072656E-003	0
1.262461368107528E+003	9.2940545E-003	-4.2001340E-003	0
1.272461367854907E+003	9.3704080E-003	-4.1193287E-003	0
1.282461367602285E+003	9.3131429E-003	-4.1230856E-003	0
1.292461367349664E+003	9.3131429E-003	-4.1168453E-003	0
1.302461367097043E+003	9.3322312E-003	-4.0614470E-003	0
1.312461366844422E+003	9.4085848E-003	-4.0305005E-003	0
1.322461366591800E+003	9.3704080E-003	-4.0071947E-003	0
1.332272366343954E+003	9.3322312E-003	-3.9237151E-003	0
1.332272566343949E+003	9.4085848E-003	-3.9333939E-003	0