time/s	Ewe/V	I/mA	error	
1.332425766340079E+003	5.5214702E-003	-1.9457722E-001	0
1.332425966340074E+003	1.1113625E-003	-1.9596697E-001	0
1.332426166340068E+003	-6.9643866E-004	-1.9596697E-001	0
1.332426566340058E+003	-1.9944436E-003	-1.9596697E-001	0
1.332427166340043E+003	-3.3115370E-003	-1.9596316E-001	0
1.332427766340028E+003	-4.3804822E-003	-1.9596380E-001	0
1.332428366340013E+003	-5.4303389E-003	-1.9597080E-001	0
1.332429166339993E+003	-6.6710794E-003	-1.9596252E-001	0
1.332429966339972E+003	-7.7400245E-003	-1.9596189E-001	0
1.332430766339952E+003	-8.9425882E-003	-1.9596571E-001	0
1.332431566339932E+003	-9.9924449E-003	-1.9597335E-001	0
1.332432366339912E+003	-1.1195009E-002	-1.9596826E-001	0
1.332433366339887E+003	-1.2435748E-002	-1.9596316E-001	0
1.332434166339866E+003	-1.3523782E-002	-1.9596444E-001	0
1.332434966339846E+003	-1.4573639E-002	-1.9596890E-001	0
1.332435766339826E+003	-1.5623496E-002	-1.9596444E-001	0
1.332436766339801E+003	-1.6749706E-002	-1.9596571E-001	0
1.332437566339780E+003	-1.7895004E-002	-1.9597080E-001	0
1.332438366339760E+003	-1.8944861E-002	-1.9596890E-001	0
1.332439366339735E+003	-2.0032896E-002	-1.9597207E-001	0
1.332440366339710E+003	-2.1120928E-002	-1.9596635E-001	0
1.332441366339684E+003	-2.2418933E-002	-1.9596890E-001	0
1.332442366339659E+003	-2.3583321E-002	-1.9596252E-001	0
1.332443366339634E+003	-2.4728619E-002	-1.9597144E-001	0
1.332444366339609E+003	-2.5835741E-002	-1.9596316E-001	0
1.332445366339583E+003	-2.6885599E-002	-1.9596252E-001	0
1.332446366339558E+003	-2.7992720E-002	-1.9596952E-001	0
1.332447366339533E+003	-2.9195283E-002	-1.9596635E-001	0
1.332448566339503E+003	-3.0455112E-002	-1.9596444E-001	0
1.332449566339477E+003	-3.1562231E-002	-1.9596507E-001	0
1.332450566339452E+003	-3.2612089E-002	-1.9596507E-001	0
1.332451566339427E+003	-3.3642858E-002	-1.9596571E-001	0
1.332452566339402E+003	-3.4673627E-002	-1.9596061E-001	0
1.332453566339376E+003	-3.5742573E-002	-1.9596061E-001	0
1.332454766339346E+003	-3.6926046E-002	-1.9596571E-001	0
1.332455566339326E+003	-3.7937727E-002	-1.9596697E-001	0
1.332456766339295E+003	-3.9083026E-002	-1.9596697E-001	0
1.332457966339265E+003	-4.0228326E-002	-1.9596507E-001	0
1.332459166339235E+003	-4.1488152E-002	-1.9596635E-001	0
1.332460366339204E+003	-4.2633452E-002	-1.9596890E-001	0
1.332461366339179E+003	-4.3702397E-002	-1.9596507E-001	0
1.332462566339149E+003	-4.4771343E-002	-1.9596761E-001	0
1.332463766339119E+003	-4.5859378E-002	-1.9596316E-001	0
1.332464766339093E+003	-4.6871059E-002	-1.9596635E-001	0
1.332465966339063E+003	-4.7959089E-002	-1.9596826E-001	0
1.332467166339033E+003	-4.9066212E-002	-1.9596952E-001	0
1.332468366339002E+003	-5.0230600E-002	-1.9596952E-001	0
1.332469566338972E+003	-5.1318634E-002	-1.9596697E-001	0
1.332470766338942E+003	-5.2425753E-002	-1.9596316E-001	0
1.332472166338906E+003	-5.3628318E-002	-1.9596697E-001	0
1.332473366338876E+003	-5.4678176E-002	-1.9596252E-001	0
1.332474566338846E+003	-5.5785298E-002	-1.9596444E-001	0
1.332475766338815E+003	-5.6854244E-002	-1.9596507E-001	0
1.332476766338790E+003	-5.7923187E-002	-1.9596507E-001	0
1.332478166338755E+003	-5.8934867E-002	-1.9596571E-001	0
1.332479366338725E+003	-6.0022902E-002	-1.9596952E-001	0
1.332480766338689E+003	-6.1187290E-002	-1.9595870E-001	0
1.332481966338659E+003	-6.2294412E-002	-1.9595934E-001	0
1.332483166338629E+003	-6.3344263E-002	-1.9596697E-001	0
1.332484566338593E+003	-6.4470477E-002	-1.9596507E-001	0
1.332485766338563E+003	-6.5577596E-002	-1.9596252E-001	0
1.332487166338527E+003	-6.6608369E-002	-1.9596761E-001	0
1.332488566338492E+003	-6.7810930E-002	-1.9596189E-001	0
1.332489966338457E+003	-6.8918049E-002	-1.9596507E-001	0
1.332491366338421E+003	-7.0044264E-002	-1.9597207E-001	0
1.332492566338391E+003	-7.1094118E-002	-1.9596189E-001	0
1.332493966338356E+003	-7.2239421E-002	-1.9595808E-001	0
1.332495566338315E+003	-7.3384717E-002	-1.9596761E-001	0
1.332496966338280E+003	-7.4396394E-002	-1.9596444E-001	0
1.332498166338250E+003	-7.5503521E-002	-1.9596890E-001	0
1.332499766338209E+003	-7.6763347E-002	-1.9596826E-001	0
1.332501166338174E+003	-7.7794120E-002	-1.9596571E-001	0
1.332502766338133E+003	-7.8939416E-002	-1.9596635E-001	0
1.332504166338098E+003	-8.0008358E-002	-1.9596125E-001	0
1.332505766338058E+003	-8.1039131E-002	-1.9597016E-001	0
1.332507166338022E+003	-8.2165338E-002	-1.9596252E-001	0
1.332508766337982E+003	-8.3348811E-002	-1.9596635E-001	0
1.332510166337946E+003	-8.4436849E-002	-1.9597207E-001	0
1.332511766337906E+003	-8.5448526E-002	-1.9596380E-001	0
1.332513166337871E+003	-8.6536564E-002	-1.9596571E-001	0
1.332514766337830E+003	-8.7662771E-002	-1.9596189E-001	0
1.332516366337790E+003	-8.8808067E-002	-1.9596635E-001	0
1.332517966337749E+003	-8.9857928E-002	-1.9596444E-001	0
1.332519366337714E+003	-9.0888694E-002	-1.9596890E-001	0
1.332520966337674E+003	-9.1995820E-002	-1.9596761E-001	0
1.332522566337633E+003	-9.3007497E-002	-1.9596189E-001	0
1.332524166337593E+003	-9.4114624E-002	-1.9596697E-001	0
1.332525766337552E+003	-9.5145389E-002	-1.9596380E-001	0
1.332527166337517E+003	-9.6157067E-002	-1.9596952E-001	0
1.332528966337472E+003	-9.7168751E-002	-1.9596189E-001	0
1.332530566337431E+003	-9.8352224E-002	-1.9596252E-001	0
1.332532566337381E+003	-9.9363908E-002	-1.9597144E-001	0
1.332533966337345E+003	-1.0045194E-001	-1.9596507E-001	0
1.332535766337300E+003	-1.0165450E-001	-1.9596697E-001	0
1.332537566337254E+003	-1.0276163E-001	-1.9596189E-001	0
1.332539566337204E+003	-1.0392601E-001	-1.9595934E-001	0
1.332541166337163E+003	-1.0497587E-001	-1.9597016E-001	0
1.332542966337118E+003	-1.0615934E-001	-1.9596890E-001	0
1.332544966337067E+003	-1.0717102E-001	-1.9596571E-001	0
1.332546766337022E+003	-1.0825906E-001	-1.9596761E-001	0
1.332548366336981E+003	-1.0927074E-001	-1.9596635E-001	0
1.332550366336931E+003	-1.1030151E-001	-1.9596952E-001	0
1.332551966336890E+003	-1.1135136E-001	-1.9597080E-001	0
1.332554166336835E+003	-1.1253484E-001	-1.9596697E-001	0
1.332556166336784E+003	-1.1362287E-001	-1.9597080E-001	0
1.332557966336739E+003	-1.1463455E-001	-1.9596189E-001	0
1.332560166336683E+003	-1.1572259E-001	-1.9596252E-001	0
1.332561966336638E+003	-1.1675335E-001	-1.9596571E-001	0
1.332563966336587E+003	-1.1784139E-001	-1.9596826E-001	0
1.332566166336532E+003	-1.1904395E-001	-1.9597080E-001	0
1.332568366336476E+003	-1.2007472E-001	-1.9596761E-001	0
1.332570366336426E+003	-1.2112458E-001	-1.9596761E-001	0
1.332572366336375E+003	-1.2219352E-001	-1.9596826E-001	0
1.332574166336330E+003	-1.2324338E-001	-1.9596316E-001	0
1.332576766336264E+003	-1.2444595E-001	-1.9596890E-001	0
1.332578966336208E+003	-1.2545761E-001	-1.9596826E-001	0
1.332580966336158E+003	-1.2658383E-001	-1.9597271E-001	0
1.332583366336097E+003	-1.2763369E-001	-1.9596761E-001	0
1.332585566336042E+003	-1.2874080E-001	-1.9596061E-001	0
1.332587966335981E+003	-1.2979066E-001	-1.9596316E-001	0
1.332590166335925E+003	-1.3082144E-001	-1.9595999E-001	0
1.332592566335865E+003	-1.3185221E-001	-1.9596635E-001	0
1.332594966335804E+003	-1.3292114E-001	-1.9596635E-001	0
1.332597366335744E+003	-1.3400918E-001	-1.9596316E-001	0
1.332599966335678E+003	-1.3519266E-001	-1.9597080E-001	0
1.332602766335607E+003	-1.3628069E-001	-1.9597144E-001	0
1.332604966335552E+003	-1.3729237E-001	-1.9595744E-001	0
1.332607366335491E+003	-1.3834223E-001	-1.9596635E-001	0
1.332610166335420E+003	-1.3944936E-001	-1.9597080E-001	0
1.332612766335355E+003	-1.4053738E-001	-1.9596380E-001	0
1.332615566335284E+003	-1.4168268E-001	-1.9596189E-001	0
1.332618366335213E+003	-1.4273255E-001	-1.9596252E-001	0
1.332621166335142E+003	-1.4376330E-001	-1.9596697E-001	0
1.332623766335077E+003	-1.4483225E-001	-1.9597398E-001	0
1.332626566335006E+003	-1.4586303E-001	-1.9596890E-001	0
1.332629366334935E+003	-1.4693196E-001	-1.9596635E-001	0
1.332632366334859E+003	-1.4803909E-001	-1.9596444E-001	0
1.332635366334784E+003	-1.4905077E-001	-1.9596635E-001	0
1.332638366334708E+003	-1.5010063E-001	-1.9596635E-001	0
1.332641166334637E+003	-1.5113139E-001	-1.9596444E-001	0
1.332644566334551E+003	-1.5227669E-001	-1.9596697E-001	0
1.332647966334465E+003	-1.5332656E-001	-1.9596571E-001	0
1.332651166334384E+003	-1.5435731E-001	-1.9596635E-001	0
1.332654166334309E+003	-1.5544535E-001	-1.9597271E-001	0
1.332657766334218E+003	-1.5651430E-001	-1.9597080E-001	0
1.332661166334132E+003	-1.5758325E-001	-1.9597080E-001	0
1.332664966334036E+003	-1.5878581E-001	-1.9596761E-001	0
1.332668366333950E+003	-1.5981658E-001	-1.9596635E-001	0
1.332672566333844E+003	-1.6100006E-001	-1.9596444E-001	0
1.332676366333748E+003	-1.6208808E-001	-1.9596507E-001	0
1.332680366333647E+003	-1.6309977E-001	-1.9596697E-001	0
1.332683766333561E+003	-1.6420689E-001	-1.9596697E-001	0
1.332688166333450E+003	-1.6529492E-001	-1.9596444E-001	0
1.332692166333349E+003	-1.6630660E-001	-1.9596826E-001	0
1.332696366333243E+003	-1.6731828E-001	-1.9596761E-001	0
1.332700566333137E+003	-1.6834906E-001	-1.9596571E-001	0
1.332704766333030E+003	-1.6937982E-001	-1.9596444E-001	0
1.332708766332929E+003	-1.7042968E-001	-1.9596697E-001	0
1.332713566332808E+003	-1.7146045E-001	-1.9596761E-001	0
1.332718366332687E+003	-1.7249121E-001	-1.9596761E-001	0
1.332723166332566E+003	-1.7350289E-001	-1.9596890E-001	0
1.332727566332454E+003	-1.7451458E-001	-1.9596380E-001	0
1.332732966332318E+003	-1.7552626E-001	-1.9596697E-001	0
1.332738166332187E+003	-1.7657611E-001	-1.9596635E-001	0
1.332744166332035E+003	-1.7764506E-001	-1.9596125E-001	0
1.332750166331884E+003	-1.7865674E-001	-1.9596635E-001	0
1.332756366331727E+003	-1.7966841E-001	-1.9595999E-001	0
1.332762766331565E+003	-1.8075645E-001	-1.9596380E-001	0
1.332770566331368E+003	-1.8176813E-001	-1.9596380E-001	0
1.332778566331166E+003	-1.8277982E-001	-1.9596380E-001	0
1.332786966330954E+003	-1.8384875E-001	-1.9596635E-001	0
1.332797366330691E+003	-1.8487953E-001	-1.9596571E-001	0
1.332809966330373E+003	-1.8598665E-001	-1.9596571E-001	0
1.332830966329842E+003	-1.8699832E-001	-1.9597016E-001	0
1.332873366328771E+003	-1.8598665E-001	-1.9596890E-001	0
1.332885366328468E+003	-1.8493679E-001	-1.9597271E-001	0
1.332894766328231E+003	-1.8386784E-001	-1.9596571E-001	0
1.332902766328029E+003	-1.8276073E-001	-1.9596125E-001	0
1.332909566327857E+003	-1.8174905E-001	-1.9596761E-001	0
1.332916366327685E+003	-1.8069918E-001	-1.9596890E-001	0
1.332922566327528E+003	-1.7964932E-001	-1.9596571E-001	0
1.332928566327377E+003	-1.7861857E-001	-1.9597144E-001	0
1.332933766327245E+003	-1.7758779E-001	-1.9596890E-001	0
1.332939366327104E+003	-1.7655702E-001	-1.9596125E-001	0
1.332945166326957E+003	-1.7552626E-001	-1.9596952E-001	0
1.332949966326836E+003	-1.7451458E-001	-1.9596697E-001	0
1.332954966326710E+003	-1.7346472E-001	-1.9596635E-001	0
1.332960166326578E+003	-1.7243394E-001	-1.9596826E-001	0
1.332965366326447E+003	-1.7140318E-001	-1.9596189E-001	0
1.332970366326321E+003	-1.7031515E-001	-1.9596635E-001	0
1.332975566326189E+003	-1.6916984E-001	-1.9597144E-001	0
1.332980966326053E+003	-1.6810091E-001	-1.9596571E-001	0
1.332986566325912E+003	-1.6707014E-001	-1.9595870E-001	0
1.332990966325800E+003	-1.6603936E-001	-1.9596697E-001	0
1.332996366325664E+003	-1.6498952E-001	-1.9597144E-001	0
1.333001766325528E+003	-1.6388239E-001	-1.9596890E-001	0
1.333007166325391E+003	-1.6283253E-001	-1.9596697E-001	0
1.333012166325265E+003	-1.6180176E-001	-1.9596316E-001	0
1.333017766325123E+003	-1.6069464E-001	-1.9596697E-001	0
1.333023166324987E+003	-1.5968296E-001	-1.9596761E-001	0
1.333028366324856E+003	-1.5867127E-001	-1.9597016E-001	0
1.333034366324704E+003	-1.5762143E-001	-1.9597016E-001	0
1.333040166324558E+003	-1.5659066E-001	-1.9596697E-001	0
1.333046366324401E+003	-1.5540718E-001	-1.9596635E-001	0
1.333053366324224E+003	-1.5435731E-001	-1.9596761E-001	0
1.333059166324078E+003	-1.5334564E-001	-1.9596761E-001	0
1.333065566323916E+003	-1.5227669E-001	-1.9596444E-001	0
1.333072166323749E+003	-1.5124592E-001	-1.9596697E-001	0
1.333079166323572E+003	-1.5008155E-001	-1.9596444E-001	0
1.333086166323395E+003	-1.4901260E-001	-1.9596380E-001	0
1.333093566323209E+003	-1.4796273E-001	-1.9596635E-001	0
1.333101966322996E+003	-1.4687471E-001	-1.9596507E-001	0
1.333109766322799E+003	-1.4580576E-001	-1.9596952E-001	0
1.333118366322582E+003	-1.4473681E-001	-1.9596507E-001	0
1.333126966322365E+003	-1.4372513E-001	-1.9597080E-001	0
1.333135766322142E+003	-1.4263710E-001	-1.9596507E-001	0
1.333145166321905E+003	-1.4162542E-001	-1.9597016E-001	0
1.333154166321678E+003	-1.4061373E-001	-1.9597398E-001	0
1.333164166321425E+003	-1.3960207E-001	-1.9596890E-001	0
1.333175166321147E+003	-1.3855220E-001	-1.9596761E-001	0
1.333187566320834E+003	-1.3752143E-001	-1.9596952E-001	0
1.333199366320536E+003	-1.3643339E-001	-1.9597016E-001	0
1.333212766320197E+003	-1.3542172E-001	-1.9596571E-001	0
1.333227366319828E+003	-1.3441004E-001	-1.9596316E-001	0
1.333240766319490E+003	-1.3336018E-001	-1.9596635E-001	0
1.333258366319045E+003	-1.3232942E-001	-1.9597016E-001	0
1.333276566318586E+003	-1.3129865E-001	-1.9596635E-001	0
1.333295966318095E+003	-1.3024879E-001	-1.9596316E-001	0
1.333319966317489E+003	-1.2917984E-001	-1.9596826E-001	0
1.333343566316893E+003	-1.2816817E-001	-1.9596826E-001	0
1.333373766316130E+003	-1.2715648E-001	-1.9596890E-001	0
1.333403966315367E+003	-1.2612571E-001	-1.9597144E-001	0
1.333442766314387E+003	-1.2505677E-001	-1.9596635E-001	0
1.333487766313250E+003	-1.2396874E-001	-1.9596890E-001	0
1.333547366311745E+003	-1.2289979E-001	-1.9596890E-001	0
1.333613966310062E+003	-1.2186902E-001	-1.9596952E-001	0
1.333704766307768E+003	-1.2085734E-001	-1.9596826E-001	0
1.333820566304843E+003	-1.1982657E-001	-1.9595744E-001	0
1.333978166300862E+003	-1.1879580E-001	-1.9597080E-001	0
1.334260966293718E+003	-1.1778413E-001	-1.9597080E-001	0
1.334844166278985E+003	-1.1671518E-001	-1.9596444E-001	0
1.344844166026363E+003	-1.1694424E-001	-1.9597271E-001	0
1.354844165773742E+003	-1.1744054E-001	-1.9596826E-001	0
1.364844165521121E+003	-1.1761233E-001	-1.9596761E-001	0
1.374844165268500E+003	-1.1786047E-001	-1.9596952E-001	0
1.384844165015878E+003	-1.1778413E-001	-1.9596444E-001	0
1.394844164763257E+003	-1.1774595E-001	-1.9596952E-001	0
1.404844164510636E+003	-1.1738327E-001	-1.9596635E-001	0
1.414844164258015E+003	-1.1682971E-001	-1.9596890E-001	0
1.424844164005393E+003	-1.1639068E-001	-1.9596380E-001	0
1.434844163752772E+003	-1.1587530E-001	-1.9596826E-001	0
1.444844163500151E+003	-1.1514994E-001	-1.9597016E-001	0
1.454844163247530E+003	-1.1472999E-001	-1.9596890E-001	0
1.463685363024182E+003	-1.1371832E-001	-1.9597271E-001	0
1.473685362771561E+003	-1.1329837E-001	-1.9596380E-001	0
1.483685362518940E+003	-1.1255392E-001	-1.9596444E-001	0
1.493685362266318E+003	-1.1182857E-001	-1.9597016E-001	0
1.503685362013697E+003	-1.1123683E-001	-1.9597144E-001	0
1.513685361761076E+003	-1.1056874E-001	-1.9596697E-001	0
1.523685361508455E+003	-1.1001518E-001	-1.9596890E-001	0
1.533153161269278E+003	-1.0898441E-001	-1.9596890E-001	0
1.543153161016657E+003	-1.0848812E-001	-1.9596635E-001	0
1.553153160764035E+003	-1.0793456E-001	-1.9597144E-001	0
1.563153160511414E+003	-1.0719011E-001	-1.9596252E-001	0
1.573153160258793E+003	-1.0673200E-001	-1.9596826E-001	0
1.583153160006172E+003	-1.0602573E-001	-1.9596826E-001	0
1.593153159753550E+003	-1.0543399E-001	-1.9596952E-001	0
1.603153159500929E+003	-1.0491861E-001	-1.9597207E-001	0
1.613153159248308E+003	-1.0413598E-001	-1.9596952E-001	0
1.623153158995687E+003	-1.0365877E-001	-1.9597144E-001	0
1.633153158743065E+003	-1.0316248E-001	-1.9597080E-001	0
1.643153158490444E+003	-1.0249439E-001	-1.9596890E-001	0
1.653153158237823E+003	-1.0201718E-001	-1.9597462E-001	0
1.663153157985202E+003	-1.0159723E-001	-1.9597144E-001	0
1.673153157732580E+003	-1.0104368E-001	-1.9597207E-001	0
1.683153157479959E+003	-1.0050920E-001	-1.9597144E-001	0
1.693153157227338E+003	-1.0012744E-001	-1.9597144E-001	0
1.703153156974717E+003	-9.9707492E-002	-1.9597144E-001	0
1.713153156722095E+003	-9.9306643E-002	-1.9597144E-001	0
1.723153156469474E+003	-9.8943964E-002	-1.9596952E-001	0
1.733153156216853E+003	-9.8390400E-002	-1.9596507E-001	0
1.743153155964232E+003	-9.8218605E-002	-1.9597653E-001	0
1.753153155711610E+003	-9.7760491E-002	-1.9596890E-001	0
1.763153155458989E+003	-9.7378723E-002	-1.9596826E-001	0
1.773153155206368E+003	-9.6920602E-002	-1.9597080E-001	0
1.783153154953747E+003	-9.6710630E-002	-1.9596697E-001	0
1.793153154701125E+003	-9.6309774E-002	-1.9596761E-001	0
1.803153154448504E+003	-9.6023448E-002	-1.9597080E-001	0
1.813153154195883E+003	-9.5622599E-002	-1.9597207E-001	0
1.823153153943262E+003	-9.5336273E-002	-1.9597526E-001	0
1.833153153690640E+003	-9.5049948E-002	-1.9596252E-001	0
1.843153153438019E+003	-9.4668180E-002	-1.9597526E-001	0
1.853153153185398E+003	-9.4515473E-002	-1.9597526E-001	0
1.863153152932777E+003	-9.4210058E-002	-1.9597207E-001	0
1.873153152680155E+003	-9.3732856E-002	-1.9596571E-001	0
1.883153152427534E+003	-9.3618326E-002	-1.9596761E-001	0
1.893153152174913E+003	-9.3427442E-002	-1.9596635E-001	0
1.903153151922292E+003	-9.3064763E-002	-1.9597144E-001	0
1.913153151669670E+003	-9.2759348E-002	-1.9596890E-001	0
1.923153151417049E+003	-9.2587553E-002	-1.9597335E-001	0
1.933153151164428E+003	-9.2396669E-002	-1.9596890E-001	0
1.943153150911807E+003	-9.2014909E-002	-1.9596952E-001	0
1.953153150659185E+003	-9.1919467E-002	-1.9597335E-001	0
1.963153150406564E+003	-9.1575876E-002	-1.9597016E-001	0
1.973153150153943E+003	-9.1346815E-002	-1.9597398E-001	0
1.983153149901322E+003	-9.1098666E-002	-1.9597080E-001	0
1.993153149648700E+003	-9.0907782E-002	-1.9596890E-001	0
2.003153149396079E+003	-9.0716898E-002	-1.9596761E-001	0
2.013153149143458E+003	-9.0468757E-002	-1.9596697E-001	0
2.023153148890837E+003	-9.0182431E-002	-1.9596952E-001	0
2.033153148638216E+003	-9.0067901E-002	-1.9597080E-001	0
2.043153148385594E+003	-8.9743398E-002	-1.9596826E-001	0
2.053153148132973E+003	-8.9628868E-002	-1.9596252E-001	0
2.063153147880352E+003	-8.9437984E-002	-1.9597080E-001	0
2.073153147627731E+003	-8.9228012E-002	-1.9596380E-001	0
2.083153147375109E+003	-8.9094393E-002	-1.9597016E-001	0
2.093153147122488E+003	-8.8731714E-002	-1.9596826E-001	0
2.103153146869867E+003	-8.8712633E-002	-1.9597016E-001	0
2.113153146617246E+003	-8.8483572E-002	-1.9596890E-001	0
2.123153146364624E+003	-8.8273600E-002	-1.9596952E-001	0
2.133153146112003E+003	-8.8197246E-002	-1.9596890E-001	0
2.143153145859382E+003	-8.8044539E-002	-1.9597462E-001	0
2.153153145606761E+003	-8.7891832E-002	-1.9597080E-001	0
2.163153145354139E+003	-8.7643683E-002	-1.9596890E-001	0
2.173153145101518E+003	-8.7490976E-002	-1.9596761E-001	0
2.183153144848897E+003	-8.7281004E-002	-1.9597080E-001	0
2.193153144596276E+003	-8.7300092E-002	-1.9596890E-001	0
2.203153144343654E+003	-8.7013766E-002	-1.9597080E-001	0
2.213153144091033E+003	-8.6937413E-002	-1.9596697E-001	0
2.223153143838412E+003	-8.6746536E-002	-1.9597207E-001	0
2.233153143585791E+003	-8.6517476E-002	-1.9596826E-001	0
2.243153143333169E+003	-8.6479299E-002	-1.9597207E-001	0
2.253153143080548E+003	-8.6192973E-002	-1.9597588E-001	0
2.263153142827927E+003	-8.6059354E-002	-1.9596507E-001	0
2.273153142575306E+003	-8.5983001E-002	-1.9596697E-001	0
2.283153142322684E+003	-8.5906647E-002	-1.9596697E-001	0
2.293153142070063E+003	-8.5677586E-002	-1.9596952E-001	0
2.303153141817442E+003	-8.5524879E-002	-1.9597462E-001	0
2.313153141564821E+003	-8.5372172E-002	-1.9597207E-001	0
2.323153141312199E+003	-8.5276730E-002	-1.9597526E-001	0
2.333153141059578E+003	-8.5085854E-002	-1.9597970E-001	0
2.343153140806957E+003	-8.5066766E-002	-1.9597207E-001	0
2.353153140554336E+003	-8.4971324E-002	-1.9596952E-001	0
2.363153140301714E+003	-8.4837705E-002	-1.9597080E-001	0
2.373153140049093E+003	-8.4723175E-002	-1.9597398E-001	0
2.383153139796472E+003	-8.4513202E-002	-1.9597080E-001	0
2.393153139543851E+003	-8.4436849E-002	-1.9596952E-001	0
2.403153139291229E+003	-8.4284142E-002	-1.9597080E-001	0
2.413153139038608E+003	-8.4188700E-002	-1.9597016E-001	0
2.423153138785987E+003	-8.3940551E-002	-1.9597080E-001	0
2.433153138533366E+003	-8.4016904E-002	-1.9596507E-001	0
2.443153138280744E+003	-8.3826020E-002	-1.9597080E-001	0
2.453153138028123E+003	-8.3616048E-002	-1.9597144E-001	0
2.463153137775502E+003	-8.3616048E-002	-1.9596635E-001	0
2.473153137522881E+003	-8.3291546E-002	-1.9596697E-001	0
2.483153137270259E+003	-8.3425164E-002	-1.9597398E-001	0
2.493153137017638E+003	-8.3272465E-002	-1.9596952E-001	0
2.503153136765017E+003	-8.3157934E-002	-1.9596826E-001	0
2.513153136512396E+003	-8.3024316E-002	-1.9596890E-001	0
2.523153136259774E+003	-8.2871608E-002	-1.9596826E-001	0
2.533153136007153E+003	-8.2814343E-002	-1.9596635E-001	0
2.543153135754532E+003	-8.2699813E-002	-1.9596252E-001	0
2.553153135501911E+003	-8.2604371E-002	-1.9597207E-001	0
2.563153135249289E+003	-8.2451664E-002	-1.9597526E-001	0
2.573153134996668E+003	-8.2451664E-002	-1.9596890E-001	0
2.583153134744047E+003	-8.2375310E-002	-1.9596380E-001	0
2.593153134491426E+003	-8.2279868E-002	-1.9597398E-001	0
2.603153134238804E+003	-8.2146250E-002	-1.9596952E-001	0
2.613153133986183E+003	-8.1974454E-002	-1.9597207E-001	0
2.623153133733562E+003	-8.1917189E-002	-1.9596826E-001	0
2.633153133480941E+003	-8.1821747E-002	-1.9596826E-001	0
2.643153133228319E+003	-8.1707217E-002	-1.9597207E-001	0
2.653153132975698E+003	-8.1764482E-002	-1.9597462E-001	0
2.663153132723077E+003	-8.1554510E-002	-1.9596697E-001	0
2.673153132470456E+003	-8.1459068E-002	-1.9597398E-001	0
2.683153132217834E+003	-8.1439987E-002	-1.9597016E-001	0
2.693153131965213E+003	-8.1325457E-002	-1.9597588E-001	0
2.703153131712592E+003	-8.1210926E-002	-1.9597271E-001	0
2.713153131459971E+003	-8.1058219E-002	-1.9596697E-001	0
2.723153131207349E+003	-8.1058219E-002	-1.9597462E-001	0
2.733153130954728E+003	-8.0886424E-002	-1.9596697E-001	0
2.743153130702107E+003	-8.0886424E-002	-1.9597462E-001	0
2.753153130449486E+003	-8.0695540E-002	-1.9597335E-001	0
2.763153130196864E+003	-8.0657363E-002	-1.9597271E-001	0
2.773153129944243E+003	-8.0676451E-002	-1.9597144E-001	0
2.783153129691622E+003	-8.0504656E-002	-1.9597080E-001	0
2.793153129439001E+003	-8.0523744E-002	-1.9597462E-001	0
2.803153129186379E+003	-8.0428302E-002	-1.9597144E-001	0
2.813153128933758E+003	-8.0180153E-002	-1.9597144E-001	0
2.823153128681137E+003	-8.0122888E-002	-1.9596635E-001	0
2.833153128428516E+003	-8.0122888E-002	-1.9596761E-001	0
2.843153128175894E+003	-8.0084711E-002	-1.9597271E-001	0
2.853153127923273E+003	-7.9874739E-002	-1.9596697E-001	0
2.863153127670652E+003	-7.9932004E-002	-1.9597398E-001	0
2.873153127418031E+003	-7.9836562E-002	-1.9596890E-001	0
2.883153127165409E+003	-7.9741120E-002	-1.9597462E-001	0
2.893153126912788E+003	-7.9702944E-002	-1.9596890E-001	0
2.903153126660167E+003	-7.9702944E-002	-1.9596890E-001	0
2.913153126407546E+003	-7.9569332E-002	-1.9596571E-001	0
2.923153126154924E+003	-7.9569332E-002	-1.9597080E-001	0
2.933153125902303E+003	-7.9321183E-002	-1.9597080E-001	0
2.943153125649682E+003	-7.9378448E-002	-1.9597526E-001	0
2.953153125397061E+003	-7.9302095E-002	-1.9597016E-001	0
2.963153125144439E+003	-7.9130299E-002	-1.9596697E-001	0
2.973153124891818E+003	-7.9187565E-002	-1.9597144E-001	0
2.983153124639197E+003	-7.9015769E-002	-1.9596761E-001	0
2.993153124386576E+003	-7.8824885E-002	-1.9597207E-001	0
3.003153124133954E+003	-7.8958504E-002	-1.9597398E-001	0
3.013153123881333E+003	-7.8843974E-002	-1.9597016E-001	0
3.023153123628712E+003	-7.8748532E-002	-1.9596826E-001	0
3.033153123376091E+003	-7.8767620E-002	-1.9596571E-001	0
3.043153123123469E+003	-7.8614913E-002	-1.9597207E-001	0
3.053153122870848E+003	-7.8462206E-002	-1.9597588E-001	0
3.063153122618227E+003	-7.8538559E-002	-1.9597207E-001	0
3.073153122365606E+003	-7.8443117E-002	-1.9597335E-001	0
3.083153122112984E+003	-7.8366764E-002	-1.9597398E-001	0
3.093153121860363E+003	-7.8347676E-002	-1.9597588E-001	0
3.103153121607742E+003	-7.8290410E-002	-1.9596761E-001	0
3.113153121355121E+003	-7.8137703E-002	-1.9596890E-001	0
3.123153121102499E+003	-7.7965908E-002	-1.9596826E-001	0
3.132425720868254E+003	-7.8080438E-002	-1.9597144E-001	0