time/s	Ewe/V	I/mA	error	
9.588769757767150E+002	5.7026511E-003	-1.9468842E-001	0
9.588771757767099E+002	-3.7581809E-003	-1.9594997E-001	0
9.588773757767049E+002	-1.1486094E-002	-1.9595315E-001	0
9.588775757766998E+002	-1.7347040E-002	-1.9595505E-001	0
9.588777757766948E+002	-2.2272525E-002	-1.9595824E-001	0
9.588779757766897E+002	-2.6701646E-002	-1.9596525E-001	0
9.588781757766847E+002	-3.0500760E-002	-1.9595824E-001	0
9.588783757766796E+002	-3.4013510E-002	-1.9596015E-001	0
9.588785757766746E+002	-3.7201714E-002	-1.9595760E-001	0
9.588787757766695E+002	-3.9989002E-002	-1.9596206E-001	0
9.588789757766644E+002	-4.2699929E-002	-1.9596460E-001	0
9.588791757766594E+002	-4.5124490E-002	-1.9596587E-001	0
9.588793757766543E+002	-4.7186323E-002	-1.9596651E-001	0
9.588795757766493E+002	-4.9305428E-002	-1.9596525E-001	0
9.588797757766442E+002	-5.1119074E-002	-1.9596079E-001	0
9.588799757766392E+002	-5.2856360E-002	-1.9596651E-001	0
9.588801757766341E+002	-5.4498188E-002	-1.9596270E-001	0
9.588803757766291E+002	-5.5853650E-002	-1.9595951E-001	0
9.588805757766240E+002	-5.7323661E-002	-1.9596334E-001	0
9.588807757766190E+002	-5.8640942E-002	-1.9596970E-001	0
9.588809757766139E+002	-5.9824586E-002	-1.9596460E-001	0
9.588811757766089E+002	-6.0970049E-002	-1.9596206E-001	0
9.588813757766038E+002	-6.2020056E-002	-1.9596651E-001	0
9.588817757765937E+002	-6.3986428E-002	-1.9596525E-001	0
9.588821757765836E+002	-6.5647349E-002	-1.9596143E-001	0
9.588825757765735E+002	-6.7155540E-002	-1.9596842E-001	0
9.588829757765634E+002	-6.8511002E-002	-1.9595888E-001	0
9.588833757765533E+002	-6.9828287E-002	-1.9596779E-001	0
9.588837757765432E+002	-7.0992835E-002	-1.9596525E-001	0
9.588843757765280E+002	-7.2558306E-002	-1.9596842E-001	0
9.588849757765129E+002	-7.3799223E-002	-1.9596270E-001	0
9.588855757764977E+002	-7.5135589E-002	-1.9596396E-001	0
9.588861757764826E+002	-7.6185599E-002	-1.9597097E-001	0
9.588867757764674E+002	-7.7197425E-002	-1.9596270E-001	0
9.588875757764472E+002	-7.8495614E-002	-1.9596334E-001	0
9.588881757764320E+002	-7.9507440E-002	-1.9596270E-001	0
9.588889757764118E+002	-8.0595627E-002	-1.9596143E-001	0
9.588899757763866E+002	-8.1779271E-002	-1.9596334E-001	0
9.588909757763613E+002	-8.2982004E-002	-1.9596334E-001	0
9.588917757763411E+002	-8.4032014E-002	-1.9597161E-001	0
9.588927757763158E+002	-8.5101113E-002	-1.9596970E-001	0
9.588937757762906E+002	-8.6170211E-002	-1.9596779E-001	0
9.588949757762603E+002	-8.7277487E-002	-1.9596143E-001	0
9.588961757762299E+002	-8.8422947E-002	-1.9596143E-001	0
9.588971757762047E+002	-8.9511141E-002	-1.9596334E-001	0
9.588983757761744E+002	-9.0618417E-002	-1.9596396E-001	0
9.588995757761440E+002	-9.1630243E-002	-1.9596525E-001	0
9.589005757761188E+002	-9.2699341E-002	-1.9596842E-001	0
9.589019757760834E+002	-9.3806624E-002	-1.9596906E-001	0
9.589031757760531E+002	-9.4875716E-002	-1.9596525E-001	0
9.589043757760228E+002	-9.5944814E-002	-1.9596587E-001	0
9.589057757759874E+002	-9.7109370E-002	-1.9597097E-001	0
9.589071757759521E+002	-9.8254830E-002	-1.9596079E-001	0
9.589085757759167E+002	-9.9266656E-002	-1.9596779E-001	0
9.589097757758864E+002	-1.0033575E-001	-1.9596396E-001	0
9.589111757758510E+002	-1.0134758E-001	-1.9596906E-001	0
9.589123757758207E+002	-1.0235941E-001	-1.9597289E-001	0
9.589137757757853E+002	-1.0339032E-001	-1.9596715E-001	0
9.589151757757500E+002	-1.0440215E-001	-1.9596970E-001	0
9.589167757757095E+002	-1.0573851E-001	-1.9596842E-001	0
9.589185757756641E+002	-1.0701761E-001	-1.9596460E-001	0
9.589199757756287E+002	-1.0804853E-001	-1.9596715E-001	0
9.589215757755883E+002	-1.0907945E-001	-1.9596715E-001	0
9.589231757755479E+002	-1.1024400E-001	-1.9596396E-001	0
9.589247757755074E+002	-1.1133219E-001	-1.9596651E-001	0
9.589263757754670E+002	-1.1240128E-001	-1.9596587E-001	0
9.589279757754266E+002	-1.1360402E-001	-1.9596842E-001	0
9.589297757753811E+002	-1.1471130E-001	-1.9596779E-001	0
9.589313757753407E+002	-1.1579949E-001	-1.9596651E-001	0
9.589331757752952E+002	-1.1700223E-001	-1.9596206E-001	0
9.589349757752498E+002	-1.1816678E-001	-1.9596206E-001	0
9.589367757752043E+002	-1.1923587E-001	-1.9596906E-001	0
9.589383757751639E+002	-1.2024770E-001	-1.9596715E-001	0
9.589401757751184E+002	-1.2139317E-001	-1.9596143E-001	0
9.589417757750780E+002	-1.2246226E-001	-1.9596396E-001	0
9.589437757750275E+002	-1.2362681E-001	-1.9596525E-001	0
9.589453757749870E+002	-1.2467682E-001	-1.9597161E-001	0
9.589471757749416E+002	-1.2574591E-001	-1.9596525E-001	0
9.589491757748910E+002	-1.2691046E-001	-1.9596270E-001	0
9.589511757748405E+002	-1.2796047E-001	-1.9597034E-001	0
9.589527757748001E+002	-1.2899140E-001	-1.9596460E-001	0
9.589547757747496E+002	-1.3002230E-001	-1.9596587E-001	0
9.589563757747092E+002	-1.3103414E-001	-1.9596396E-001	0
9.589583757746586E+002	-1.3208413E-001	-1.9596525E-001	0
9.589603757746081E+002	-1.3309596E-001	-1.9596587E-001	0
9.589619757745677E+002	-1.3414598E-001	-1.9596525E-001	0
9.589641757745121E+002	-1.3523416E-001	-1.9596206E-001	0
9.589663757744565E+002	-1.3645598E-001	-1.9596525E-001	0
9.589683757744060E+002	-1.3758236E-001	-1.9596587E-001	0
9.589705757743504E+002	-1.3865145E-001	-1.9596587E-001	0
9.589725757742999E+002	-1.3966328E-001	-1.9596970E-001	0
9.589747757742443E+002	-1.4073238E-001	-1.9596334E-001	0
9.589767757741938E+002	-1.4176328E-001	-1.9596715E-001	0
9.589789757741382E+002	-1.4288966E-001	-1.9596525E-001	0
9.589811757740827E+002	-1.4392057E-001	-1.9596842E-001	0
9.589833757740271E+002	-1.4502786E-001	-1.9596270E-001	0
9.589857757739665E+002	-1.4613514E-001	-1.9596587E-001	0
9.589881757739058E+002	-1.4728060E-001	-1.9595760E-001	0
9.589905757738452E+002	-1.4829242E-001	-1.9596651E-001	0
9.589925757737947E+002	-1.4939970E-001	-1.9596779E-001	0
9.589951757737290E+002	-1.5050699E-001	-1.9596334E-001	0
9.589975757736684E+002	-1.5159518E-001	-1.9596779E-001	0
9.589999757736077E+002	-1.5264519E-001	-1.9596715E-001	0
9.590025757735420E+002	-1.5375246E-001	-1.9596460E-001	0
9.590051757734764E+002	-1.5489793E-001	-1.9596715E-001	0
9.590075757734157E+002	-1.5590975E-001	-1.9596715E-001	0
9.590103757733450E+002	-1.5707430E-001	-1.9597289E-001	0
9.590131757732743E+002	-1.5818158E-001	-1.9597289E-001	0
9.590159757732035E+002	-1.5936522E-001	-1.9596525E-001	0
9.590189757731278E+002	-1.6047250E-001	-1.9596525E-001	0
9.590217757730570E+002	-1.6167524E-001	-1.9596525E-001	0
9.590245757729863E+002	-1.6274433E-001	-1.9597352E-001	0
9.590273757729155E+002	-1.6383253E-001	-1.9596270E-001	0
9.590305757728347E+002	-1.6499707E-001	-1.9596587E-001	0
9.590337757727539E+002	-1.6618071E-001	-1.9596587E-001	0
9.590367757726781E+002	-1.6721164E-001	-1.9596525E-001	0
9.590397757726023E+002	-1.6829982E-001	-1.9596587E-001	0
9.590429757725215E+002	-1.6940710E-001	-1.9596525E-001	0
9.590455757724558E+002	-1.7041893E-001	-1.9596270E-001	0
9.590487757723749E+002	-1.7143075E-001	-1.9596651E-001	0
9.590519757722941E+002	-1.7244259E-001	-1.9596587E-001	0
9.590545757722284E+002	-1.7345440E-001	-1.9596779E-001	0
9.590581757721375E+002	-1.7452350E-001	-1.9596334E-001	0
9.590615757720516E+002	-1.7566897E-001	-1.9596525E-001	0
9.590651757719606E+002	-1.7673807E-001	-1.9596079E-001	0
9.590685757718747E+002	-1.7788352E-001	-1.9596206E-001	0
9.590723757717788E+002	-1.7891444E-001	-1.9596587E-001	0
9.590757757716929E+002	-1.7996445E-001	-1.9596270E-001	0
9.590791757716070E+002	-1.8105264E-001	-1.9596143E-001	0
9.590831757715059E+002	-1.8208355E-001	-1.9596206E-001	0
9.590871757714049E+002	-1.8322901E-001	-1.9596587E-001	0
9.590909757713089E+002	-1.8431720E-001	-1.9596906E-001	0
9.590949757712078E+002	-1.8532902E-001	-1.9597289E-001	0
9.590987757711118E+002	-1.8635994E-001	-1.9596525E-001	0
9.591027757710108E+002	-1.8756267E-001	-1.9596525E-001	0
9.591075757708895E+002	-1.8857451E-001	-1.9596270E-001	0
9.591119757707784E+002	-1.8977724E-001	-1.9596906E-001	0
9.591161757706723E+002	-1.9090360E-001	-1.9596715E-001	0
9.591203757705662E+002	-1.9195361E-001	-1.9596651E-001	0
9.591251757704449E+002	-1.9298454E-001	-1.9597097E-001	0
9.591299757703237E+002	-1.9399635E-001	-1.9596525E-001	0
9.591343757702125E+002	-1.9508454E-001	-1.9596334E-001	0
9.591395757700811E+002	-1.9613455E-001	-1.9596970E-001	0
9.591445757699548E+002	-1.9718456E-001	-1.9596270E-001	0
9.591493757698336E+002	-1.9821547E-001	-1.9596396E-001	0
9.591541757697123E+002	-1.9926548E-001	-1.9597225E-001	0
9.591595757695759E+002	-2.0039184E-001	-1.9596396E-001	0
9.591655757694243E+002	-2.0146094E-001	-1.9596842E-001	0
9.591711757692829E+002	-2.0256823E-001	-1.9596525E-001	0
9.591771757691313E+002	-2.0361823E-001	-1.9596715E-001	0
9.591827757689898E+002	-2.0468733E-001	-1.9596715E-001	0
9.591891757688281E+002	-2.0575643E-001	-1.9596143E-001	0
9.591947757686867E+002	-2.0676826E-001	-1.9597034E-001	0
9.592009757685300E+002	-2.0783736E-001	-1.9597606E-001	0
9.592079757683532E+002	-2.0884918E-001	-1.9596906E-001	0
9.592149757681764E+002	-2.0993736E-001	-1.9596396E-001	0
9.592223757679894E+002	-2.1096829E-001	-1.9597352E-001	0
9.592293757678126E+002	-2.1203738E-001	-1.9596651E-001	0
9.592365757676307E+002	-2.1304920E-001	-1.9596460E-001	0
9.592443757674337E+002	-2.1409921E-001	-1.9596906E-001	0
9.592519757672417E+002	-2.1511103E-001	-1.9596587E-001	0
9.592605757670244E+002	-2.1618013E-001	-1.9596906E-001	0
9.592691757668072E+002	-2.1726832E-001	-1.9597480E-001	0
9.592787757665647E+002	-2.1828015E-001	-1.9596396E-001	0
9.592889757663070E+002	-2.1940652E-001	-1.9597352E-001	0
9.592985757660645E+002	-2.2045653E-001	-1.9596779E-001	0
9.593097757657815E+002	-2.2146834E-001	-1.9596396E-001	0
9.593215757654834E+002	-2.2249927E-001	-1.9596206E-001	0
9.593341757651651E+002	-2.2353019E-001	-1.9596460E-001	0
9.593479757648165E+002	-2.2463746E-001	-1.9596842E-001	0
9.593643757644022E+002	-2.2564928E-001	-1.9597034E-001	0
9.593831757639273E+002	-2.2669929E-001	-1.9597034E-001	0
9.594075757633109E+002	-2.2771111E-001	-1.9596396E-001	0
9.594495757622499E+002	-2.2872294E-001	-1.9596270E-001	0
9.595319757601683E+002	-2.2767293E-001	-1.9597161E-001	0
9.595719757591578E+002	-2.2658475E-001	-1.9597097E-001	0
9.596031757583696E+002	-2.2557293E-001	-1.9596842E-001	0
9.596381757574854E+002	-2.2456110E-001	-1.9596651E-001	0
9.596689757567074E+002	-2.2354928E-001	-1.9596651E-001	0
9.597041757558181E+002	-2.2253744E-001	-1.9597097E-001	0
9.597433757548279E+002	-2.2150654E-001	-1.9596143E-001	0
9.597831757538224E+002	-2.2049470E-001	-1.9596270E-001	0
9.598269757527160E+002	-2.1944471E-001	-1.9596779E-001	0
9.598741757515236E+002	-2.1841379E-001	-1.9596651E-001	0
9.599329757500382E+002	-2.1730651E-001	-1.9596206E-001	0
9.599929757485224E+002	-2.1627559E-001	-1.9596587E-001	0
9.600569757469057E+002	-2.1526377E-001	-1.9597034E-001	0
9.601233757452283E+002	-2.1425194E-001	-1.9595888E-001	0
9.602043757431820E+002	-2.1324012E-001	-1.9596334E-001	0
9.602805757412571E+002	-2.1222830E-001	-1.9596906E-001	0
9.603671757390694E+002	-2.1119738E-001	-1.9596779E-001	0
9.604619757366745E+002	-2.1018556E-001	-1.9596587E-001	0
9.605575757342594E+002	-2.0917372E-001	-1.9596651E-001	0
9.606631757315918E+002	-2.0816191E-001	-1.9596525E-001	0
9.607833757285553E+002	-2.0715007E-001	-1.9596334E-001	0
9.609035757255187E+002	-2.0613825E-001	-1.9596906E-001	0
9.610317757222801E+002	-2.0510733E-001	-1.9596970E-001	0
9.611717757187434E+002	-2.0409551E-001	-1.9596334E-001	0
9.613173757150653E+002	-2.0308369E-001	-1.9596525E-001	0
9.614663757113012E+002	-2.0205277E-001	-1.9596587E-001	0
9.616245757073048E+002	-2.0104095E-001	-1.9596715E-001	0
9.618197757023736E+002	-1.9999094E-001	-1.9596525E-001	0
9.619991756978416E+002	-1.9897911E-001	-1.9596970E-001	0
9.621961756928649E+002	-1.9792911E-001	-1.9596715E-001	0
9.624233756871254E+002	-1.9691728E-001	-1.9596587E-001	0
9.626303756818961E+002	-1.9590546E-001	-1.9596970E-001	0
9.628603756760858E+002	-1.9485545E-001	-1.9597097E-001	0
9.631171756695985E+002	-1.9384363E-001	-1.9596842E-001	0
9.633657756633183E+002	-1.9283180E-001	-1.9596460E-001	0
9.636441756562854E+002	-1.9180089E-001	-1.9597542E-001	0
9.639325756489998E+002	-1.9075088E-001	-1.9597034E-001	0
9.642467756410624E+002	-1.8968178E-001	-1.9596906E-001	0
9.645797756326501E+002	-1.8865086E-001	-1.9596651E-001	0
9.649005756245460E+002	-1.8763904E-001	-1.9596715E-001	0
9.652877756147645E+002	-1.8656994E-001	-1.9596270E-001	0
9.657027756042808E+002	-1.8555813E-001	-1.9596906E-001	0
9.661227755936707E+002	-1.8450812E-001	-1.9596525E-001	0
9.665679755824240E+002	-1.8349628E-001	-1.9597097E-001	0
9.670229755709297E+002	-1.8246537E-001	-1.9597034E-001	0
9.675335755580309E+002	-1.8141536E-001	-1.9596525E-001	0
9.680927755439043E+002	-1.8040355E-001	-1.9597480E-001	0
9.686779755291209E+002	-1.7939171E-001	-1.9596587E-001	0
9.693081755132007E+002	-1.7834170E-001	-1.9596779E-001	0
9.700145754953555E+002	-1.7732988E-001	-1.9596587E-001	0
9.706907754782733E+002	-1.7629896E-001	-1.9596651E-001	0
9.715259754571744E+002	-1.7528714E-001	-1.9596587E-001	0
9.723089754373941E+002	-1.7427532E-001	-1.9597542E-001	0
9.732297754141327E+002	-1.7322531E-001	-1.9596842E-001	0
9.742173753891839E+002	-1.7213713E-001	-1.9596334E-001	0
9.753379753608751E+002	-1.7110620E-001	-1.9597097E-001	0
9.763687753348349E+002	-1.7009439E-001	-1.9596906E-001	0
9.775923753039242E+002	-1.6908255E-001	-1.9596587E-001	0
9.788783752714371E+002	-1.6807073E-001	-1.9596779E-001	0
9.801967752381315E+002	-1.6705891E-001	-1.9596715E-001	0
9.816507752014004E+002	-1.6604708E-001	-1.9596906E-001	0
9.831455751636386E+002	-1.6501617E-001	-1.9596270E-001	0
9.849329751184850E+002	-1.6400434E-001	-1.9596906E-001	0
9.867197750733467E+002	-1.6297343E-001	-1.9596715E-001	0
9.887643750216957E+002	-1.6196160E-001	-1.9597352E-001	0
9.909187749672710E+002	-1.6094978E-001	-1.9596970E-001	0
9.933179749066621E+002	-1.5993795E-001	-1.9596587E-001	0
9.957285748457653E+002	-1.5892613E-001	-1.9596587E-001	0
9.986861747710500E+002	-1.5791431E-001	-1.9596651E-001	0
1.001905174689731E+003	-1.5690248E-001	-1.9596970E-001	0
1.005511174598636E+003	-1.5589066E-001	-1.9596906E-001	0
1.009611174495061E+003	-1.5485974E-001	-1.9596715E-001	0
1.014697974366558E+003	-1.5382883E-001	-1.9597034E-001	0
1.020246574226388E+003	-1.5281700E-001	-1.9596270E-001	0
1.027450574044400E+003	-1.5180518E-001	-1.9596970E-001	0
1.036683973811145E+003	-1.5071699E-001	-1.9597097E-001	0
1.046683973558524E+003	-1.5012516E-001	-1.9596970E-001	0
1.056498573310586E+003	-1.4911334E-001	-1.9596842E-001	0
1.066498573057965E+003	-1.4884606E-001	-1.9597097E-001	0
1.076498572805343E+003	-1.4817788E-001	-1.9597097E-001	0
1.086498572552722E+003	-1.4771970E-001	-1.9596906E-001	0
1.096498572300101E+003	-1.4724241E-001	-1.9597542E-001	0
1.106498572047480E+003	-1.4674605E-001	-1.9596906E-001	0
1.116498571794858E+003	-1.4642151E-001	-1.9596906E-001	0
1.126498571542237E+003	-1.4598241E-001	-1.9596842E-001	0
1.136498571289616E+003	-1.4556241E-001	-1.9596587E-001	0
1.146498571036995E+003	-1.4525695E-001	-1.9596715E-001	0
1.156498570784373E+003	-1.4487512E-001	-1.9597225E-001	0
1.166498570531752E+003	-1.4453149E-001	-1.9596842E-001	0
1.176498570279131E+003	-1.4434057E-001	-1.9596587E-001	0
1.186498570026510E+003	-1.4393967E-001	-1.9596715E-001	0
1.196498569773888E+003	-1.4365330E-001	-1.9596842E-001	0
1.206498569521267E+003	-1.4325239E-001	-1.9596715E-001	0
1.216498569268646E+003	-1.4300421E-001	-1.9597352E-001	0
1.226498569016025E+003	-1.4267966E-001	-1.9597225E-001	0
1.236498568763403E+003	-1.4245057E-001	-1.9596970E-001	0
1.246498568510782E+003	-1.4210694E-001	-1.9596970E-001	0
1.256498568258161E+003	-1.4189693E-001	-1.9596715E-001	0
1.266498568005540E+003	-1.4147693E-001	-1.9596842E-001	0
1.276498567752918E+003	-1.4126693E-001	-1.9596460E-001	0
1.286498567500297E+003	-1.4099964E-001	-1.9597097E-001	0
1.296498567247676E+003	-1.4059874E-001	-1.9597225E-001	0
1.306498566995055E+003	-1.4033146E-001	-1.9597606E-001	0
1.316498566742433E+003	-1.4014055E-001	-1.9597225E-001	0
1.326498566489812E+003	-1.3958691E-001	-1.9596587E-001	0
1.336498566237191E+003	-1.3949145E-001	-1.9597161E-001	0
1.346498565984570E+003	-1.3901418E-001	-1.9596842E-001	0
1.356498565731948E+003	-1.3880418E-001	-1.9596970E-001	0
1.366498565479327E+003	-1.3855600E-001	-1.9597097E-001	0
1.376498565226706E+003	-1.3825054E-001	-1.9596970E-001	0
1.386498564974085E+003	-1.3800235E-001	-1.9596970E-001	0
1.396498564721463E+003	-1.3758236E-001	-1.9597097E-001	0
1.406498564468842E+003	-1.3725781E-001	-1.9597161E-001	0
1.416498564216221E+003	-1.3699053E-001	-1.9597606E-001	0
1.426498563963600E+003	-1.3676144E-001	-1.9596715E-001	0
1.436498563710978E+003	-1.3636053E-001	-1.9597289E-001	0
1.446498563458357E+003	-1.3601689E-001	-1.9596970E-001	0
1.456498563205736E+003	-1.3573052E-001	-1.9597097E-001	0
1.466498562953115E+003	-1.3546325E-001	-1.9596396E-001	0
1.476498562700493E+003	-1.3504325E-001	-1.9596970E-001	0
1.486498562447872E+003	-1.3464233E-001	-1.9597097E-001	0
1.496498562195251E+003	-1.3452779E-001	-1.9596587E-001	0
1.506498561942630E+003	-1.3433687E-001	-1.9596396E-001	0
1.516498561690009E+003	-1.3399324E-001	-1.9596779E-001	0
1.526498561437387E+003	-1.3342051E-001	-1.9596651E-001	0
1.536498561184766E+003	-1.3328688E-001	-1.9596906E-001	0
1.546498560932145E+003	-1.3292414E-001	-1.9596906E-001	0
1.556498560679524E+003	-1.3265687E-001	-1.9597097E-001	0
1.566498560426902E+003	-1.3225596E-001	-1.9597097E-001	0
1.576498560174281E+003	-1.3195050E-001	-1.9596779E-001	0
1.586498559921660E+003	-1.3185504E-001	-1.9597034E-001	0
1.596498559669039E+003	-1.3137777E-001	-1.9596970E-001	0
1.606498559416417E+003	-1.3111049E-001	-1.9596842E-001	0
1.616498559163796E+003	-1.3078594E-001	-1.9597097E-001	0
1.626498558911175E+003	-1.3038504E-001	-1.9596587E-001	0
1.636498558658554E+003	-1.3013685E-001	-1.9597542E-001	0
1.646498558405932E+003	-1.2979321E-001	-1.9597225E-001	0
1.656498558153311E+003	-1.2941140E-001	-1.9597161E-001	0
1.666498557900690E+003	-1.2906775E-001	-1.9597097E-001	0
1.676498557648069E+003	-1.2868594E-001	-1.9596525E-001	0
1.686498557395447E+003	-1.2851411E-001	-1.9597416E-001	0
1.696498557142826E+003	-1.2813230E-001	-1.9597416E-001	0
1.706498556890205E+003	-1.2780775E-001	-1.9596906E-001	0
1.716498556637584E+003	-1.2759775E-001	-1.9597289E-001	0
1.726498556384962E+003	-1.2723501E-001	-1.9596460E-001	0
1.736498556132341E+003	-1.2691046E-001	-1.9596715E-001	0
1.746498555879720E+003	-1.2660500E-001	-1.9596270E-001	0
1.756498555627099E+003	-1.2641411E-001	-1.9596779E-001	0
1.766498555374477E+003	-1.2605137E-001	-1.9597416E-001	0
1.776498555121856E+003	-1.2574591E-001	-1.9597161E-001	0
1.786498554869235E+003	-1.2549773E-001	-1.9597161E-001	0
1.796498554616614E+003	-1.2519227E-001	-1.9596906E-001	0
1.806498554363992E+003	-1.2482955E-001	-1.9597161E-001	0
1.816498554111371E+003	-1.2448591E-001	-1.9596651E-001	0
1.826498553858750E+003	-1.2429500E-001	-1.9597034E-001	0
1.836498553606129E+003	-1.2377954E-001	-1.9597034E-001	0
1.846498553353507E+003	-1.2368409E-001	-1.9597034E-001	0
1.856498553100886E+003	-1.2335954E-001	-1.9597097E-001	0
1.866498552848265E+003	-1.2305408E-001	-1.9596079E-001	0
1.876498552595644E+003	-1.2276772E-001	-1.9597542E-001	0
1.886498552343022E+003	-1.2251953E-001	-1.9597289E-001	0
1.896498552090401E+003	-1.2217589E-001	-1.9596651E-001	0
1.906498551837780E+003	-1.2187044E-001	-1.9597161E-001	0
1.916498551585159E+003	-1.2167953E-001	-1.9596779E-001	0
1.926498551332537E+003	-1.2145044E-001	-1.9597034E-001	0
1.936498551079916E+003	-1.2112589E-001	-1.9596460E-001	0
1.946498550827295E+003	-1.2068679E-001	-1.9597225E-001	0
1.956498550574674E+003	-1.2057225E-001	-1.9597289E-001	0
1.966498550322052E+003	-1.2019043E-001	-1.9597034E-001	0
1.976498550069431E+003	-1.1988498E-001	-1.9596779E-001	0
1.986498549816810E+003	-1.1973225E-001	-1.9597606E-001	0
1.996498549564189E+003	-1.1940770E-001	-1.9597034E-001	0
2.006498549311567E+003	-1.1912133E-001	-1.9596970E-001	0
2.016498549058946E+003	-1.1891133E-001	-1.9596842E-001	0
2.026498548806325E+003	-1.1856769E-001	-1.9596206E-001	0
2.036498548553704E+003	-1.1828133E-001	-1.9596715E-001	0
2.046498548301082E+003	-1.1791860E-001	-1.9596906E-001	0
2.056498548048461E+003	-1.1772768E-001	-1.9597161E-001	0
2.066498547795840E+003	-1.1749859E-001	-1.9596970E-001	0
2.076498547543219E+003	-1.1715496E-001	-1.9596842E-001	0
2.086498547290597E+003	-1.1698314E-001	-1.9596525E-001	0
2.096498547037976E+003	-1.1663949E-001	-1.9597352E-001	0
2.106498546785355E+003	-1.1644859E-001	-1.9596970E-001	0
2.116498546532734E+003	-1.1610495E-001	-1.9596715E-001	0
2.126498546280112E+003	-1.1583767E-001	-1.9596587E-001	0
2.136498546027491E+003	-1.1551312E-001	-1.9596906E-001	0
2.146498545774870E+003	-1.1526494E-001	-1.9597352E-001	0
2.156498545522249E+003	-1.1513130E-001	-1.9596715E-001	0
2.166498545269627E+003	-1.1474948E-001	-1.9597225E-001	0
2.176498545017006E+003	-1.1450130E-001	-1.9596715E-001	0
2.186498544764385E+003	-1.1429130E-001	-1.9597097E-001	0
2.196498544511764E+003	-1.1398584E-001	-1.9596906E-001	0
2.206498544259142E+003	-1.1387130E-001	-1.9596779E-001	0
2.216498544006521E+003	-1.1360402E-001	-1.9596334E-001	0
2.226498543753900E+003	-1.1333675E-001	-1.9596842E-001	0
2.236498543501279E+003	-1.1301220E-001	-1.9597289E-001	0
2.246498543248657E+003	-1.1272583E-001	-1.9596715E-001	0
2.256498542996036E+003	-1.1253493E-001	-1.9596460E-001	0
2.266498542743415E+003	-1.1234401E-001	-1.9596715E-001	0
2.276498542490794E+003	-1.1205765E-001	-1.9596779E-001	0
2.286498542238172E+003	-1.1173310E-001	-1.9596842E-001	0
2.296498541985551E+003	-1.1165674E-001	-1.9596525E-001	0
2.306498541732930E+003	-1.1137037E-001	-1.9597161E-001	0
2.316498541480309E+003	-1.1104582E-001	-1.9597606E-001	0
2.326498541227687E+003	-1.1093128E-001	-1.9596587E-001	0
2.336498540975066E+003	-1.1072128E-001	-1.9597097E-001	0
2.346498540722445E+003	-1.1033946E-001	-1.9597416E-001	0
2.356498540469824E+003	-1.1007218E-001	-1.9597289E-001	0
2.366498540217202E+003	-1.0991945E-001	-1.9597606E-001	0
2.376498539964581E+003	-1.0967127E-001	-1.9596970E-001	0
2.386498539711960E+003	-1.0957582E-001	-1.9596970E-001	0
2.396498539459339E+003	-1.0921308E-001	-1.9596970E-001	0
2.406498539206717E+003	-1.0888854E-001	-1.9597225E-001	0
2.416498538954096E+003	-1.0865945E-001	-1.9596970E-001	0
2.426498538701475E+003	-1.0848763E-001	-1.9596525E-001	0
2.436498538448854E+003	-1.0835399E-001	-1.9596587E-001	0
2.446498538196232E+003	-1.0801035E-001	-1.9596525E-001	0
2.456498537943611E+003	-1.0780035E-001	-1.9597097E-001	0
2.466498537690990E+003	-1.0766671E-001	-1.9596270E-001	0
2.476498537438369E+003	-1.0745671E-001	-1.9597034E-001	0
2.486498537185747E+003	-1.0720853E-001	-1.9596970E-001	0
2.496498536933126E+003	-1.0711307E-001	-1.9596651E-001	0
2.506498536680505E+003	-1.0678852E-001	-1.9596779E-001	0
2.516498536427884E+003	-1.0657852E-001	-1.9597416E-001	0
2.526498536175262E+003	-1.0636852E-001	-1.9597480E-001	0
2.536498535922641E+003	-1.0612034E-001	-1.9597097E-001	0
2.546498535670020E+003	-1.0583397E-001	-1.9596651E-001	0
2.556498535417399E+003	-1.0575761E-001	-1.9596779E-001	0
2.566498535164777E+003	-1.0549033E-001	-1.9596906E-001	0
2.576498534912156E+003	-1.0533760E-001	-1.9596651E-001	0
2.586498534659535E+003	-1.0516579E-001	-1.9596334E-001	0
2.596498534406914E+003	-1.0482214E-001	-1.9596906E-001	0
2.606498534154292E+003	-1.0465033E-001	-1.9596396E-001	0
2.616498533901671E+003	-1.0445942E-001	-1.9597161E-001	0
2.626498533649050E+003	-1.0426851E-001	-1.9597416E-001	0
2.636498533396429E+003	-1.0407760E-001	-1.9596525E-001	0
2.646498533143807E+003	-1.0381033E-001	-1.9597225E-001	0
2.656498532891186E+003	-1.0365760E-001	-1.9597097E-001	0
2.666498532638565E+003	-1.0350487E-001	-1.9596906E-001	0
2.676498532385944E+003	-1.0314213E-001	-1.9597097E-001	0
2.686498532133322E+003	-1.0314213E-001	-1.9596396E-001	0
2.696498531880701E+003	-1.0277940E-001	-1.9597097E-001	0
2.706498531628080E+003	-1.0262668E-001	-1.9596842E-001	0
2.716498531375459E+003	-1.0247395E-001	-1.9597289E-001	0
2.726498531122837E+003	-1.0216849E-001	-1.9596842E-001	0
2.736498530870216E+003	-1.0209213E-001	-1.9596525E-001	0
2.746498530617595E+003	-1.0199668E-001	-1.9596970E-001	0
2.756498530364974E+003	-1.0165304E-001	-1.9597480E-001	0
2.758876930304890E+003	-1.0163394E-001	-1.9596334E-001	0