time/s	Ewe/V	I/mA	error	
8.215859792449919E+001	8.7414049E-003	-1.9598952E-001	0
8.242839791768347E+001	7.6723080E-003	-1.9599207E-001	0
8.263119791256031E+001	6.6604842E-003	-1.9599016E-001	0
8.278759790860931E+001	5.6486605E-003	-1.9598508E-001	0
8.295179790446127E+001	4.6177455E-003	-1.9598952E-001	0
8.309219790091447E+001	3.6059218E-003	-1.9598380E-001	0
8.322839789747377E+001	2.5750070E-003	-1.9599143E-001	0
8.336779789395223E+001	1.5631831E-003	-1.9599143E-001	0
8.349199789081467E+001	5.5135944E-004	-1.9598380E-001	0
8.361499788770743E+001	-4.6046436E-004	-1.9599143E-001	0
8.373799788460019E+001	-1.5486521E-003	-1.9598889E-001	0
8.387179788122012E+001	-2.5986577E-003	-1.9598761E-001	0
8.398619787833013E+001	-3.6486636E-003	-1.9599207E-001	0
8.410519787532394E+001	-4.6604872E-003	-1.9599590E-001	0
8.423159787213081E+001	-5.7104928E-003	-1.9598952E-001	0
8.435559786899830E+001	-6.7414078E-003	-1.9599080E-001	0
8.447599786595674E+001	-7.8105046E-003	-1.9598699E-001	0
8.459659786291013E+001	-8.8223284E-003	-1.9599143E-001	0
8.471279785997467E+001	-9.8341517E-003	-1.9598889E-001	0
8.483259785694827E+001	-1.0865066E-002	-1.9599016E-001	0
8.495219785392692E+001	-1.1876890E-002	-1.9599016E-001	0
8.506879785098135E+001	-1.2907805E-002	-1.9599652E-001	0
8.519739784773265E+001	-1.4015084E-002	-1.9598699E-001	0
8.531579784474161E+001	-1.5045999E-002	-1.9598570E-001	0
8.543619784170005E+001	-1.6057823E-002	-1.9598825E-001	0
8.555419783871912E+001	-1.7126918E-002	-1.9599271E-001	0
8.567799783559167E+001	-1.8138742E-002	-1.9599016E-001	0
8.578639783285325E+001	-1.9150566E-002	-1.9598825E-001	0
8.590999782973086E+001	-2.0200573E-002	-1.9599397E-001	0
8.602519782682066E+001	-2.1212395E-002	-1.9599080E-001	0
8.614639782375889E+001	-2.2224220E-002	-1.9598952E-001	0
8.626359782079817E+001	-2.3255134E-002	-1.9598952E-001	0
8.638959781761514E+001	-2.4286048E-002	-1.9599016E-001	0
8.650259781476052E+001	-2.5336055E-002	-1.9598699E-001	0
8.662279781172401E+001	-2.6347879E-002	-1.9599462E-001	0
8.675239780845004E+001	-2.7359702E-002	-1.9598889E-001	0
8.687599780532764E+001	-2.8390616E-002	-1.9598889E-001	0
8.699279780237703E+001	-2.9459713E-002	-1.9598761E-001	0
8.711839779920410E+001	-3.0471537E-002	-1.9599271E-001	0
8.724779779593518E+001	-3.1502452E-002	-1.9599080E-001	0
8.736099779307551E+001	-3.2514274E-002	-1.9599524E-001	0
8.748739778988238E+001	-3.3564281E-002	-1.9598699E-001	0
8.760859778682061E+001	-3.4652468E-002	-1.9599652E-001	0
8.774059778348601E+001	-3.5664294E-002	-1.9599016E-001	0
8.786239778040908E+001	-3.6695208E-002	-1.9598952E-001	0
8.798619777728163E+001	-3.7707031E-002	-1.9598889E-001	0
8.811419777404808E+001	-3.8718853E-002	-1.9599271E-001	0
8.822699777119851E+001	-3.9807044E-002	-1.9598889E-001	0
8.835819776788412E+001	-4.0857047E-002	-1.9598699E-001	0
8.848399776470615E+001	-4.1868873E-002	-1.9598570E-001	0
8.860479776165448E+001	-4.3014333E-002	-1.9599143E-001	0
8.875179775794095E+001	-4.4064339E-002	-1.9598380E-001	0
8.888619775454572E+001	-4.5114346E-002	-1.9598952E-001	0
8.901599775126670E+001	-4.6126168E-002	-1.9599397E-001	0
8.914039774812409E+001	-4.7176175E-002	-1.9599143E-001	0
8.927179774480464E+001	-4.8226181E-002	-1.9598380E-001	0
8.940719774138415E+001	-4.9295276E-002	-1.9599016E-001	0
8.953679773811018E+001	-5.0326191E-002	-1.9599080E-001	0
8.966939773476042E+001	-5.1338013E-002	-1.9599715E-001	0
8.979459773159761E+001	-5.2388020E-002	-1.9599524E-001	0
8.993199772812659E+001	-5.3418934E-002	-1.9598889E-001	0
9.005719772496377E+001	-5.4430760E-002	-1.9599080E-001	0
9.018479772174032E+001	-5.5442583E-002	-1.9599080E-001	0
9.031679771840572E+001	-5.6473497E-002	-1.9599143E-001	0
9.045659771487408E+001	-5.7561684E-002	-1.9598570E-001	0
9.059659771133738E+001	-5.8592599E-002	-1.9599333E-001	0
9.072939770798257E+001	-5.9623513E-002	-1.9598635E-001	0
9.086319770460250E+001	-6.0635339E-002	-1.9598889E-001	0
9.100999770089402E+001	-6.1685346E-002	-1.9599080E-001	0
9.114339769752405E+001	-6.2716261E-002	-1.9598889E-001	0
9.128039769406314E+001	-6.3747175E-002	-1.9598952E-001	0
9.142979769028898E+001	-6.4873539E-002	-1.9599143E-001	0
9.158359768640366E+001	-6.5885365E-002	-1.9598952E-001	0
9.171959768296801E+001	-6.6916279E-002	-1.9598825E-001	0
9.186039767941111E+001	-6.7947194E-002	-1.9599524E-001	0
9.200859767566726E+001	-6.9073565E-002	-1.9598825E-001	0
9.215699767191836E+001	-7.0085391E-002	-1.9599207E-001	0
9.230459766818967E+001	-7.1116306E-002	-1.9599652E-001	0
9.246259766419826E+001	-7.2128125E-002	-1.9599271E-001	0
9.260479766060598E+001	-7.3139951E-002	-1.9599080E-001	0
9.276339765659941E+001	-7.4151777E-002	-1.9599590E-001	0
9.291659765272925E+001	-7.5201780E-002	-1.9599016E-001	0
9.308819764839427E+001	-7.6213606E-002	-1.9598699E-001	0
9.323019764480705E+001	-7.7225432E-002	-1.9598889E-001	0
9.340679764034576E+001	-7.8294523E-002	-1.9598570E-001	0
9.358399763586931E+001	-7.9306349E-002	-1.9598761E-001	0
9.375659763150907E+001	-8.0318175E-002	-1.9599652E-001	0
9.394759762668400E+001	-8.1368178E-002	-1.9599143E-001	0
9.413459762195998E+001	-8.2437277E-002	-1.9598889E-001	0
9.436139761623053E+001	-8.3468191E-002	-1.9599333E-001	0
9.461039760994026E+001	-8.4537290E-002	-1.9599016E-001	0
9.490479760250309E+001	-8.5549109E-002	-1.9599080E-001	0
9.531879759204458E+001	-8.6560935E-002	-1.9599143E-001	0
9.670499755702622E+001	-8.5530020E-002	-1.9598889E-001	0
9.718619754487008E+001	-8.4480017E-002	-1.9599016E-001	0
9.769219753208745E+001	-8.3449095E-002	-1.9598570E-001	0
9.815779752032540E+001	-8.2437277E-002	-1.9599080E-001	0
9.873319750578958E+001	-8.1387267E-002	-1.9599207E-001	0
9.941059748867701E+001	-8.0375448E-002	-1.9599080E-001	0
1.001333974704175E+002	-7.9363622E-002	-1.9598952E-001	0
1.011459974448371E+002	-7.8351796E-002	-1.9599080E-001	0
1.023419974146236E+002	-7.7339977E-002	-1.9598189E-001	0
1.039903973729815E+002	-7.6328151E-002	-1.9599016E-001	0
1.059903973224573E+002	-7.5621784E-002	-1.9599271E-001	0
1.079903972719330E+002	-7.5049050E-002	-1.9599524E-001	0
1.099903972214088E+002	-7.4399956E-002	-1.9599080E-001	0
1.119903971708845E+002	-7.4018136E-002	-1.9599271E-001	0
1.139903971203603E+002	-7.3750861E-002	-1.9599016E-001	0
1.159903970698360E+002	-7.3540866E-002	-1.9599143E-001	0
1.179903970193118E+002	-7.3254496E-002	-1.9599143E-001	0
1.199903969687875E+002	-7.3025405E-002	-1.9598253E-001	0
1.219903969182633E+002	-7.2910860E-002	-1.9599016E-001	0
1.239903968677390E+002	-7.2758131E-002	-1.9599780E-001	0
1.259903968172148E+002	-7.2624497E-002	-1.9598952E-001	0
1.279903967666905E+002	-7.2490856E-002	-1.9599271E-001	0
1.299903967161663E+002	-7.2433583E-002	-1.9598825E-001	0
1.319903966656420E+002	-7.2261766E-002	-1.9598699E-001	0
1.339903966151178E+002	-7.1975403E-002	-1.9599143E-001	0
1.359903965645935E+002	-7.1841761E-002	-1.9599271E-001	0
1.379903965140693E+002	-7.1879946E-002	-1.9599524E-001	0
1.399903964635450E+002	-7.1669944E-002	-1.9599397E-001	0
1.419903964130208E+002	-7.1593583E-002	-1.9599207E-001	0
1.439903963624965E+002	-7.1479030E-002	-1.9598316E-001	0
1.459903963119723E+002	-7.1345396E-002	-1.9599333E-001	0
1.479903962614480E+002	-7.1364485E-002	-1.9599462E-001	0
1.499903962109238E+002	-7.1097210E-002	-1.9599271E-001	0
1.519903961603995E+002	-7.0963576E-002	-1.9599333E-001	0
1.539903961098753E+002	-7.1097210E-002	-1.9599780E-001	0
1.559903960593510E+002	-7.0925392E-002	-1.9599080E-001	0
1.579903960088268E+002	-7.0829935E-002	-1.9599016E-001	0
1.599903959583025E+002	-7.0600845E-002	-1.9599462E-001	0
1.619903959077783E+002	-7.0543572E-002	-1.9599397E-001	0
1.639903958572540E+002	-7.0448115E-002	-1.9598635E-001	0
1.659903958067298E+002	-7.0505388E-002	-1.9598952E-001	0
1.679903957562055E+002	-7.0295393E-002	-1.9598761E-001	0
1.699903957056813E+002	-7.0142664E-002	-1.9598761E-001	0
1.719903956551570E+002	-7.0219025E-002	-1.9599524E-001	0
1.739903956046328E+002	-7.0066296E-002	-1.9599271E-001	0
1.759903955541085E+002	-6.9989935E-002	-1.9598570E-001	0
1.779903955035843E+002	-6.9818117E-002	-1.9599207E-001	0
1.799903954530600E+002	-6.9627203E-002	-1.9599016E-001	0
1.819903954025358E+002	-6.9569930E-002	-1.9599590E-001	0
1.839903953520115E+002	-6.9474474E-002	-1.9599207E-001	0
1.859903953014873E+002	-6.9417201E-002	-1.9598889E-001	0
1.879903952509630E+002	-6.9398113E-002	-1.9598889E-001	0
1.899903952004388E+002	-6.9092654E-002	-1.9599143E-001	0
1.919903951499145E+002	-6.9340840E-002	-1.9599462E-001	0
1.939903950993903E+002	-6.9149926E-002	-1.9599080E-001	0
1.959903950488660E+002	-6.9092654E-002	-1.9599080E-001	0
1.979903949983418E+002	-6.8920836E-002	-1.9598380E-001	0
1.999903949478175E+002	-6.8959020E-002	-1.9599207E-001	0
2.019903948972933E+002	-6.8806291E-002	-1.9599590E-001	0
2.039903948467691E+002	-6.8825379E-002	-1.9598444E-001	0
2.059903947962448E+002	-6.8749018E-002	-1.9599016E-001	0
2.079903947457206E+002	-6.8768106E-002	-1.9599016E-001	0
2.099903946951963E+002	-6.8672657E-002	-1.9598699E-001	0
2.119903946446721E+002	-6.8539016E-002	-1.9599143E-001	0
2.139903945941478E+002	-6.8634473E-002	-1.9599524E-001	0
2.159903945436236E+002	-6.8481743E-002	-1.9599462E-001	0
2.179903944930993E+002	-6.8348110E-002	-1.9598699E-001	0
2.199903944425751E+002	-6.8290837E-002	-1.9598635E-001	0
2.219903943920508E+002	-6.8462655E-002	-1.9599843E-001	0
2.239903943415266E+002	-6.8329014E-002	-1.9599207E-001	0
2.259903942910023E+002	-6.8176284E-002	-1.9598508E-001	0
2.279903942404781E+002	-6.8195380E-002	-1.9598952E-001	0
2.299903941899538E+002	-6.8271741E-002	-1.9598952E-001	0
2.319903941394296E+002	-6.8157196E-002	-1.9598825E-001	0
2.339903940889053E+002	-6.7966290E-002	-1.9598444E-001	0
2.359903940383811E+002	-6.8099923E-002	-1.9598699E-001	0
2.379903939878568E+002	-6.8042651E-002	-1.9598761E-001	0
2.399903939373326E+002	-6.7966290E-002	-1.9599524E-001	0
2.419903938868083E+002	-6.8004467E-002	-1.9598952E-001	0
2.439903938362841E+002	-6.7889921E-002	-1.9599524E-001	0
2.459903937857598E+002	-6.8157196E-002	-1.9599207E-001	0
2.479903937352356E+002	-6.8023562E-002	-1.9598508E-001	0
2.499903936847113E+002	-6.7909017E-002	-1.9598889E-001	0
2.519903936341871E+002	-6.7985378E-002	-1.9599524E-001	0
2.539903935836628E+002	-6.7985378E-002	-1.9598825E-001	0
2.559903935331386E+002	-6.8023562E-002	-1.9599271E-001	0
2.579903934826143E+002	-6.8176284E-002	-1.9599207E-001	0
2.599903934320901E+002	-6.7947194E-002	-1.9599271E-001	0
2.619903933815658E+002	-6.7928106E-002	-1.9598889E-001	0
2.639903933310416E+002	-6.7985378E-002	-1.9598952E-001	0
2.659903932805173E+002	-6.7909017E-002	-1.9599080E-001	0
2.679903932299931E+002	-6.8004467E-002	-1.9598952E-001	0
2.699903931794688E+002	-6.8119012E-002	-1.9598889E-001	0
2.719903931289446E+002	-6.8042651E-002	-1.9598761E-001	0
2.739903930784203E+002	-6.8080835E-002	-1.9598699E-001	0
2.759903930278961E+002	-6.7928106E-002	-1.9598952E-001	0
2.779903929773718E+002	-6.8061739E-002	-1.9598125E-001	0
2.799903929268476E+002	-6.7966290E-002	-1.9599462E-001	0
2.819903928763233E+002	-6.8023562E-002	-1.9598825E-001	0
2.839903928257991E+002	-6.7985378E-002	-1.9599462E-001	0
2.859903927752748E+002	-6.8042651E-002	-1.9598444E-001	0
2.879903927247506E+002	-6.8099923E-002	-1.9599016E-001	0
2.899903926742263E+002	-6.8042651E-002	-1.9599016E-001	0
2.919903926237021E+002	-6.8195380E-002	-1.9598889E-001	0
2.939903925731778E+002	-6.8138108E-002	-1.9598889E-001	0
2.959903925226536E+002	-6.8138108E-002	-1.9598508E-001	0
2.979903924721293E+002	-6.8233557E-002	-1.9598825E-001	0
2.999903924216051E+002	-6.8138108E-002	-1.9599080E-001	0
3.019903923710808E+002	-6.8309925E-002	-1.9599333E-001	0
3.039903923205566E+002	-6.8080835E-002	-1.9598699E-001	0
3.059903922700323E+002	-6.8119012E-002	-1.9598889E-001	0
3.079903922195081E+002	-6.8061739E-002	-1.9599080E-001	0
3.099903921689838E+002	-6.8157196E-002	-1.9599080E-001	0
3.119903921184596E+002	-6.8233557E-002	-1.9599080E-001	0
3.139903920679353E+002	-6.8290837E-002	-1.9598635E-001	0
3.159903920174111E+002	-6.8214469E-002	-1.9599590E-001	0
3.179903919668868E+002	-6.8214469E-002	-1.9599333E-001	0
3.199903919163626E+002	-6.8195380E-002	-1.9599524E-001	0
3.219903918658383E+002	-6.8252653E-002	-1.9599143E-001	0
3.239903918153141E+002	-6.8157196E-002	-1.9598952E-001	0
3.259903917647898E+002	-6.8195380E-002	-1.9599143E-001	0
3.279903917142656E+002	-6.8386286E-002	-1.9598635E-001	0
3.299903916637413E+002	-6.8424471E-002	-1.9599016E-001	0
3.319903916132171E+002	-6.8271741E-002	-1.9598635E-001	0
3.339903915626928E+002	-6.8367198E-002	-1.9598635E-001	0
3.359903915121686E+002	-6.8386286E-002	-1.9599143E-001	0
3.379903914616443E+002	-6.8309925E-002	-1.9599271E-001	0
3.399903914111201E+002	-6.8329014E-002	-1.9599397E-001	0
3.419903913605958E+002	-6.8443559E-002	-1.9598699E-001	0
3.439903913100716E+002	-6.8519928E-002	-1.9599207E-001	0
3.459903912595473E+002	-6.8348110E-002	-1.9599016E-001	0
3.479903912090231E+002	-6.8481743E-002	-1.9599080E-001	0
3.499903911584988E+002	-6.8519928E-002	-1.9599080E-001	0
3.519903911079746E+002	-6.8577200E-002	-1.9599590E-001	0
3.539903910574503E+002	-6.8367198E-002	-1.9599207E-001	0
3.559903910069261E+002	-6.8519928E-002	-1.9599207E-001	0
3.579903909564018E+002	-6.8596289E-002	-1.9598889E-001	0
3.599903909058776E+002	-6.8424471E-002	-1.9599143E-001	0
3.619903908553533E+002	-6.8596289E-002	-1.9599207E-001	0
3.639903908048291E+002	-6.8481743E-002	-1.9599462E-001	0
3.659903907543048E+002	-6.8577200E-002	-1.9599397E-001	0
3.679903907037806E+002	-6.8558104E-002	-1.9599590E-001	0
3.699903906532563E+002	-6.8710834E-002	-1.9599333E-001	0
3.719903906027321E+002	-6.8691745E-002	-1.9598952E-001	0
3.739903905522078E+002	-6.8691745E-002	-1.9599143E-001	0
3.759903905016836E+002	-6.8672657E-002	-1.9599080E-001	0
3.779903904511593E+002	-6.8672657E-002	-1.9598952E-001	0
3.799903904006351E+002	-6.8672657E-002	-1.9599333E-001	0
3.819903903501108E+002	-6.8691745E-002	-1.9599271E-001	0
3.839903902995866E+002	-6.8863563E-002	-1.9598952E-001	0
3.859903902490623E+002	-6.8710834E-002	-1.9598508E-001	0
3.879903901985381E+002	-6.8691745E-002	-1.9599271E-001	0
3.899903901480138E+002	-6.8749018E-002	-1.9598952E-001	0
3.919903900974896E+002	-6.8729930E-002	-1.9598825E-001	0
3.939903900469653E+002	-6.8729930E-002	-1.9599397E-001	0
3.959903899964411E+002	-6.8920836E-002	-1.9599016E-001	0
3.979903899459168E+002	-6.8768106E-002	-1.9599016E-001	0
3.999903898953926E+002	-6.8710834E-002	-1.9599462E-001	0
4.019903898448683E+002	-6.8901747E-002	-1.9599271E-001	0
4.039903897943441E+002	-6.8882652E-002	-1.9599524E-001	0
4.059903897438198E+002	-6.8959020E-002	-1.9599271E-001	0
4.079903896932956E+002	-6.8997204E-002	-1.9599016E-001	0
4.099903896427713E+002	-6.8863563E-002	-1.9599652E-001	0
4.119903895922471E+002	-6.9035381E-002	-1.9598889E-001	0
4.139903895417228E+002	-6.8920836E-002	-1.9598952E-001	0
4.159903894911986E+002	-6.8882652E-002	-1.9599271E-001	0
4.179903894406743E+002	-6.8997204E-002	-1.9598889E-001	0
4.199903893901501E+002	-6.8978108E-002	-1.9598570E-001	0
4.219903893396258E+002	-6.8959020E-002	-1.9598889E-001	0
4.239903892891016E+002	-6.9092654E-002	-1.9598889E-001	0
4.259903892385773E+002	-6.8939932E-002	-1.9598253E-001	0
4.279903891880531E+002	-6.8997204E-002	-1.9599207E-001	0
4.299903891375288E+002	-6.9035381E-002	-1.9599333E-001	0
4.319903890870046E+002	-6.9092654E-002	-1.9598699E-001	0
4.339903890364803E+002	-6.9073565E-002	-1.9599080E-001	0
4.359903889859561E+002	-6.8959020E-002	-1.9599333E-001	0
4.379903889354318E+002	-6.9035381E-002	-1.9599207E-001	0
4.399903888849076E+002	-6.9016293E-002	-1.9599462E-001	0
4.419903888343833E+002	-6.9073565E-002	-1.9598761E-001	0
4.421573888301646E+002	-6.9092654E-002	-1.9598635E-001	0