time/s	Ewe/V	I/mA	error	
6.005299848293362E+001	3.0140383E+000	-2.5015498E-002	0
6.014319848065497E+001	8.5561415E-003	-8.9176321E+000	0
6.014419848062971E+001	8.6706877E-003	-8.8585587E+000	0
6.014519848060445E+001	8.6134141E-003	-8.7999954E+000	0
6.014619848057919E+001	8.6706877E-003	-8.7415600E+000	0
6.014719848055393E+001	8.7279603E-003	-8.6832523E+000	0
6.014819848052866E+001	8.7088700E-003	-8.6258364E+000	0
6.014919848050340E+001	8.7470515E-003	-8.5690575E+000	0
6.015019848047814E+001	8.6897789E-003	-8.5118332E+000	0
6.015119848045288E+001	8.6515965E-003	-8.4559460E+000	0
6.015219848042761E+001	8.6325053E-003	-8.3996134E+000	0
6.015319848040235E+001	8.6706877E-003	-8.3443642E+000	0
6.015419848037709E+001	8.6325053E-003	-8.2893047E+000	0
6.015519848035183E+001	8.7470515E-003	-8.2341194E+000	0
6.015619848032657E+001	8.5943239E-003	-8.1809092E+000	0
6.015719848030130E+001	8.5561415E-003	-8.1272535E+000	0
6.015819848027604E+001	8.6706877E-003	-8.0741062E+000	0
6.015919848025078E+001	8.6325053E-003	-8.0221710E+000	0
6.016019848022552E+001	8.5561415E-003	-7.9689608E+000	0
6.016119848020026E+001	8.6706877E-003	-7.9182348E+000	0
6.016219848017499E+001	8.6897789E-003	-7.8674469E+000	0
6.016319848014973E+001	8.6325053E-003	-7.8165946E+000	0
6.016439848011942E+001	8.6134141E-003	-7.7565017E+000	0
6.016559848008910E+001	8.7088700E-003	-7.6980662E+000	0
6.016679848005879E+001	8.7088700E-003	-7.6403322E+000	0
6.016799848002847E+001	8.7279603E-003	-7.5822783E+000	0
6.016919847999816E+001	8.6706877E-003	-7.5264554E+000	0
6.017039847996784E+001	8.6897789E-003	-7.4704413E+000	0
6.017159847993753E+001	8.6515965E-003	-7.4141083E+000	0
6.017279847990721E+001	8.6515965E-003	-7.3601971E+000	0
6.017399847987690E+001	8.6897789E-003	-7.3060312E+000	0
6.017519847984659E+001	8.7088700E-003	-7.2546053E+000	0
6.017639847981627E+001	8.5561415E-003	-7.2017779E+000	0
6.017759847978596E+001	8.6706877E-003	-7.1508613E+000	0
6.017879847975564E+001	8.6897789E-003	-7.0994358E+000	0
6.017999847972533E+001	8.6325053E-003	-7.0489016E+000	0
6.018139847968996E+001	8.7088700E-003	-6.9907217E+000	0
6.018279847965459E+001	8.6706877E-003	-6.9340062E+000	0
6.018419847961923E+001	8.7661427E-003	-6.8779287E+000	0
6.018559847958386E+001	8.6515965E-003	-6.8231249E+000	0
6.018699847954849E+001	8.6515965E-003	-6.7685127E+000	0
6.018839847951313E+001	8.7279603E-003	-6.7139010E+000	0
6.018979847947776E+001	8.6134141E-003	-6.6612635E+000	0
6.019119847944239E+001	8.6897789E-003	-6.6086907E+000	0
6.019259847940702E+001	8.6325053E-003	-6.5569468E+000	0
6.019399847937166E+001	8.6706877E-003	-6.5064769E+000	0
6.019539847933629E+001	8.6325053E-003	-6.4559422E+000	0
6.019699847929587E+001	8.6515965E-003	-6.3992910E+000	0
6.019859847925545E+001	8.7279603E-003	-6.3430228E+000	0
6.020019847921503E+001	8.6897789E-003	-6.2874546E+000	0
6.020179847917461E+001	8.6706877E-003	-6.2325878E+000	0
6.020339847913419E+001	8.6515965E-003	-6.1785488E+000	0
6.020499847909377E+001	8.6897789E-003	-6.1262951E+000	0
6.020659847905335E+001	8.6515965E-003	-6.0735307E+000	0
6.020819847901294E+001	8.6325053E-003	-6.0222960E+000	0
6.020979847897252E+001	8.7661427E-003	-5.9714432E+000	0
6.021139847893210E+001	8.6134141E-003	-5.9214191E+000	0
6.021319847888662E+001	8.5752327E-003	-5.8658514E+000	0
6.021499847884115E+001	8.5943239E-003	-5.8104749E+000	0
6.021679847879568E+001	8.6515965E-003	-5.7575831E+000	0
6.021859847875021E+001	8.6515965E-003	-5.7041817E+000	0
6.022039847870474E+001	8.6515965E-003	-5.6518636E+000	0
6.022219847865927E+001	8.6897789E-003	-5.5998006E+000	0
6.022419847860874E+001	8.7470515E-003	-5.5434675E+000	0
6.022619847855822E+001	8.6706877E-003	-5.4880910E+000	0
6.022819847850769E+001	8.6134141E-003	-5.4334154E+000	0
6.023019847845717E+001	8.6134141E-003	-5.3803320E+000	0
6.023219847840664E+001	8.7088700E-003	-5.3285875E+000	0
6.023419847835612E+001	8.6134141E-003	-5.2765250E+000	0
6.023619847830560E+001	8.7279603E-003	-5.2256722E+000	0
6.023819847825507E+001	8.7088700E-003	-5.1752658E+000	0
6.024039847819950E+001	8.7279603E-003	-5.1218009E+000	0
6.024259847814392E+001	8.6897789E-003	-5.0694828E+000	0
6.024479847808834E+001	8.7088700E-003	-5.0175471E+000	0
6.024719847802771E+001	8.6706877E-003	-4.9636359E+000	0
6.024959847796708E+001	8.7088700E-003	-4.9096613E+000	0
6.025199847790645E+001	8.7661427E-003	-4.8578529E+000	0
6.025439847784583E+001	8.6325053E-003	-4.8064904E+000	0
6.025699847778014E+001	8.6134141E-003	-4.7529616E+000	0
6.025959847771446E+001	8.6706877E-003	-4.6999426E+000	0
6.026219847764878E+001	8.5943239E-003	-4.6492176E+000	0
6.026479847758310E+001	8.7088700E-003	-4.5978560E+000	0
6.026759847751237E+001	8.6706877E-003	-4.5455375E+000	0
6.027039847744163E+001	8.6897789E-003	-4.4946852E+000	0
6.027339847736584E+001	8.7470515E-003	-4.4425583E+000	0
6.027639847729006E+001	8.6134141E-003	-4.3906231E+000	0
6.027959847720922E+001	8.6134141E-003	-4.3372855E+000	0
6.028279847712838E+001	8.6325053E-003	-4.2852859E+000	0
6.028599847704754E+001	8.7661427E-003	-4.2351980E+000	0
6.028939847696165E+001	8.5943239E-003	-4.1845369E+000	0
6.029279847687576E+001	8.6706877E-003	-4.1336203E+000	0
6.029639847678482E+001	8.7279603E-003	-4.0825133E+000	0
6.030019847668882E+001	8.7470515E-003	-4.0308323E+000	0
6.030399847659282E+001	8.7279603E-003	-3.9806173E+000	0
6.030799847649178E+001	8.7279603E-003	-3.9299557E+000	0
6.031219847638567E+001	8.6325053E-003	-3.8787849E+000	0
6.031639847627957E+001	8.6134141E-003	-3.8286972E+000	0
6.032079847616842E+001	8.6325053E-003	-3.7786732E+000	0
6.032539847605221E+001	8.6706877E-003	-3.7280118E+000	0
6.033019847593096E+001	8.7088700E-003	-3.6766498E+000	0
6.033519847580465E+001	8.6515965E-003	-3.6260524E+000	0
6.034039847567328E+001	8.6706877E-003	-3.5755188E+000	0
6.034579847553687E+001	8.7470515E-003	-3.5251124E+000	0
6.035159847539035E+001	8.7279603E-003	-3.4732404E+000	0
6.035759847523877E+001	8.6325053E-003	-3.4214320E+000	0
6.036379847508215E+001	8.6325053E-003	-3.3707709E+000	0
6.037039847491542E+001	8.6897789E-003	-3.3186440E+000	0
6.037719847474364E+001	8.7852338E-003	-3.2678552E+000	0
6.038439847456175E+001	8.5943239E-003	-3.2168753E+000	0
6.039159847437986E+001	8.7088700E-003	-3.1659594E+000	0
6.039939847418282E+001	8.6897789E-003	-3.1152349E+000	0
6.040739847398072E+001	8.6134141E-003	-3.0652106E+000	0
6.041599847376347E+001	8.7279603E-003	-3.0141034E+000	0
6.042479847354116E+001	8.7088700E-003	-2.9635696E+000	0
6.043399847330875E+001	8.7279603E-003	-2.9126534E+000	0
6.044379847306118E+001	8.6134141E-003	-2.8614826E+000	0
6.045419847279845E+001	8.7470515E-003	-2.8110125E+000	0
6.046499847252562E+001	8.7088700E-003	-2.7597139E+000	0
6.047639847223763E+001	8.6515965E-003	-2.7091167E+000	0
6.048819847193954E+001	8.7088700E-003	-2.6583278E+000	0
6.050059847162629E+001	8.6706877E-003	-2.6077304E+000	0
6.051359847129788E+001	8.6515965E-003	-2.5570691E+000	0
6.052719847095432E+001	8.6134141E-003	-2.5064719E+000	0
6.054159847059054E+001	8.6515965E-003	-2.4563842E+000	0
6.055659847021161E+001	8.6706877E-003	-2.4062326E+000	0
6.057239846981247E+001	8.6515965E-003	-2.3556352E+000	0
6.058919846938807E+001	8.6706877E-003	-2.3055475E+000	0
6.060659846894850E+001	8.6515965E-003	-2.2554600E+000	0
6.062539846847358E+001	8.5943239E-003	-2.2053723E+000	0
6.064479846798349E+001	8.7661427E-003	-2.1552846E+000	0
6.066559846745804E+001	8.6325053E-003	-2.1048145E+000	0
6.068739846690733E+001	8.7088700E-003	-2.0545354E+000	0
6.071059846632124E+001	8.7470515E-003	-2.0038741E+000	0
6.073559846568969E+001	8.5561415E-003	-1.9535316E+000	0
6.076239846501267E+001	8.7470515E-003	-1.9029980E+000	0
6.079019846431038E+001	8.6134141E-003	-1.8522092E+000	0
6.081999846355757E+001	8.7470515E-003	-1.8021852E+000	0
6.085199846274918E+001	8.7088700E-003	-1.7520975E+000	0
6.088599846189027E+001	8.6897789E-003	-1.7013727E+000	0
6.092279846096062E+001	8.6325053E-003	-1.6513486E+000	0
6.096279845995014E+001	8.6325053E-003	-1.6004962E+000	0
6.100459845889418E+001	8.5752327E-003	-1.5504724E+000	0
6.105099845772202E+001	8.6706877E-003	-1.5000024E+000	0
6.110059845646902E+001	8.6515965E-003	-1.4498509E+000	0
6.115459845510486E+001	8.7470515E-003	-1.3997633E+000	0
6.121239845364471E+001	8.6897789E-003	-1.3497393E+000	0
6.127559845204814E+001	8.7470515E-003	-1.2997154E+000	0
6.134579845027474E+001	8.7279603E-003	-1.2493091E+000	0
6.142339844831440E+001	8.6134141E-003	-1.1985842E+000	0
6.150759844618733E+001	8.7661427E-003	-1.1484965E+000	0
6.160259844378743E+001	8.6897789E-003	-1.0982176E+000	0
6.170759844113491E+001	8.6706877E-003	-1.0477476E+000	0
6.182659843812871E+001	8.6897789E-003	-9.9702263E-001	0
6.196059843474359E+001	8.6134141E-003	-9.4648886E-001	0
6.211279843089869E+001	8.8043250E-003	-8.9621001E-001	0
6.228479842655361E+001	8.5943239E-003	-8.4612226E-001	0
6.248259842155676E+001	8.7661427E-003	-7.9609841E-001	0
6.271299841573637E+001	8.5943239E-003	-7.4543720E-001	0
6.298859840877412E+001	8.6325053E-003	-6.9509459E-001	0
6.331819840044773E+001	8.6897789E-003	-6.4507061E-001	0
6.371739839036309E+001	8.7088700E-003	-5.9472805E-001	0
6.421079837789875E+001	8.6515965E-003	-5.4444921E-001	0
6.484179836195835E+001	8.7470515E-003	-4.9404287E-001	0
6.576959833852015E+001	8.6325053E-003	-4.4397762E-001	0
6.698319830786204E+001	8.7279603E-003	-3.9395583E-001	0
6.858219826746790E+001	8.7279603E-003	-3.4392130E-001	0
7.098659820672765E+001	8.7661427E-003	-2.9391864E-001	0
7.491019810760918E+001	8.7088700E-003	-2.4389046E-001	0
8.167259793677658E+001	8.7661427E-003	-1.9589856E-001	0
8.167279793677153E+001	8.7661427E-003	-1.9617219E-001	0