time/s	Ewe/V	I/mA	error	
4.020048876323315E+004	-2.0213066E-002	-1.9452041E-001	0
4.020048896323313E+004	-4.7714673E-002	-1.9595198E-001	0
4.020048916323314E+004	-6.3150100E-002	-1.9596535E-001	0
4.020048936323309E+004	-7.1550146E-002	-1.9597425E-001	0
4.020048956323310E+004	-7.7239268E-002	-1.9597489E-001	0
4.020048976323311E+004	-8.1210203E-002	-1.9597362E-001	0
4.020048996323312E+004	-8.4092945E-002	-1.9598189E-001	0
4.020049016323313E+004	-8.6441137E-002	-1.9597934E-001	0
4.020049036323302E+004	-8.8312060E-002	-1.9597617E-001	0
4.020049056323303E+004	-8.9953884E-002	-1.9597870E-001	0
4.020049076323304E+004	-9.1309346E-002	-1.9597425E-001	0
4.020049096323305E+004	-9.2645720E-002	-1.9598380E-001	0
4.020049116323306E+004	-9.3657538E-002	-1.9597934E-001	0
4.020049156323308E+004	-9.5662095E-002	-1.9597743E-001	0
4.020049196323309E+004	-9.7380288E-002	-1.9598508E-001	0
4.020049236323308E+004	-9.9022113E-002	-1.9598444E-001	0
4.020049276323308E+004	-1.0077849E-001	-1.9597870E-001	0
4.020049316323310E+004	-1.0219122E-001	-1.9598125E-001	0
4.020049356323306E+004	-1.0362305E-001	-1.9598635E-001	0
4.020049396323308E+004	-1.0476851E-001	-1.9598380E-001	0
4.020049436323310E+004	-1.0612398E-001	-1.9598380E-001	0
4.020049476323312E+004	-1.0734580E-001	-1.9598444E-001	0
4.020049516323314E+004	-1.0858671E-001	-1.9598699E-001	0
4.020049556323315E+004	-1.0959854E-001	-1.9598699E-001	0
4.020049596323316E+004	-1.1074400E-001	-1.9598062E-001	0
4.020049636323316E+004	-1.1190855E-001	-1.9598761E-001	0
4.020049676323315E+004	-1.1301583E-001	-1.9598444E-001	0
4.020049736323312E+004	-1.1456220E-001	-1.9598570E-001	0
4.020049776323314E+004	-1.1561221E-001	-1.9598062E-001	0
4.020049816323305E+004	-1.1664312E-001	-1.9598444E-001	0
4.020049876323307E+004	-1.1801767E-001	-1.9598125E-001	0
4.020049936323310E+004	-1.1946859E-001	-1.9598635E-001	0
4.020049996323310E+004	-1.2070951E-001	-1.9598189E-001	0
4.020050056323310E+004	-1.2210315E-001	-1.9598125E-001	0
4.020050116323307E+004	-1.2342043E-001	-1.9598570E-001	0
4.020050176323310E+004	-1.2475681E-001	-1.9598699E-001	0
4.020050236323313E+004	-1.2601681E-001	-1.9598635E-001	0
4.020050296323316E+004	-1.2721954E-001	-1.9598253E-001	0
4.020050356323319E+004	-1.2836500E-001	-1.9598062E-001	0
4.020050416323319E+004	-1.2958683E-001	-1.9598189E-001	0
4.020050476323318E+004	-1.3063683E-001	-1.9598699E-001	0
4.020050536323315E+004	-1.3180138E-001	-1.9597362E-001	0
4.020050596323307E+004	-1.3294685E-001	-1.9598062E-001	0
4.020050676323310E+004	-1.3441685E-001	-1.9598189E-001	0
4.020050736323313E+004	-1.3546686E-001	-1.9598508E-001	0
4.020050796323313E+004	-1.3655505E-001	-1.9598380E-001	0
4.020050876323314E+004	-1.3791052E-001	-1.9598189E-001	0
4.020050936323311E+004	-1.3894142E-001	-1.9597870E-001	0
4.020051016323303E+004	-1.4022052E-001	-1.9599207E-001	0
4.020051076323306E+004	-1.4130871E-001	-1.9598253E-001	0
4.020051156323309E+004	-1.4241599E-001	-1.9598699E-001	0
4.020051216323310E+004	-1.4344691E-001	-1.9598761E-001	0
4.020051296323305E+004	-1.4472599E-001	-1.9597808E-001	0
4.020051376323309E+004	-1.4602418E-001	-1.9598189E-001	0
4.020051456323313E+004	-1.4713147E-001	-1.9598189E-001	0
4.020051536323316E+004	-1.4831512E-001	-1.9598635E-001	0
4.020051616323314E+004	-1.4959420E-001	-1.9598889E-001	0
4.020051716323313E+004	-1.5081604E-001	-1.9598508E-001	0
4.020051796323305E+004	-1.5207604E-001	-1.9598444E-001	0
4.020051876323309E+004	-1.5320241E-001	-1.9598189E-001	0
4.020051976323310E+004	-1.5455787E-001	-1.9599080E-001	0
4.020052056323306E+004	-1.5564606E-001	-1.9598125E-001	0
4.020052136323310E+004	-1.5677243E-001	-1.9598508E-001	0
4.020052236323315E+004	-1.5799426E-001	-1.9598253E-001	0
4.020052336323318E+004	-1.5929244E-001	-1.9598380E-001	0
4.020052436323318E+004	-1.6060972E-001	-1.9598189E-001	0
4.020052536323317E+004	-1.6179337E-001	-1.9598508E-001	0
4.020052636323310E+004	-1.6290064E-001	-1.9598444E-001	0
4.020052716323313E+004	-1.6393156E-001	-1.9598380E-001	0
4.020052796323312E+004	-1.6498157E-001	-1.9598062E-001	0
4.020052896323311E+004	-1.6603157E-001	-1.9598316E-001	0
4.020052976323315E+004	-1.6706249E-001	-1.9597998E-001	0
4.020053076323320E+004	-1.6815068E-001	-1.9598125E-001	0
4.020053176323319E+004	-1.6931523E-001	-1.9598570E-001	0
4.020053276323318E+004	-1.7034614E-001	-1.9598444E-001	0
4.020053376323311E+004	-1.7149161E-001	-1.9598761E-001	0
4.020053476323315E+004	-1.7263706E-001	-1.9598189E-001	0
4.020053596323315E+004	-1.7385888E-001	-1.9598062E-001	0
4.020053696323314E+004	-1.7500435E-001	-1.9598761E-001	0
4.020053816323320E+004	-1.7626436E-001	-1.9598508E-001	0
4.020053936323323E+004	-1.7733346E-001	-1.9598825E-001	0
4.020054016323318E+004	-1.7836437E-001	-1.9598253E-001	0
4.020054136323312E+004	-1.7937618E-001	-1.9598635E-001	0
4.020054256323318E+004	-1.8063620E-001	-1.9598508E-001	0
4.020054356323316E+004	-1.8168621E-001	-1.9598508E-001	0
4.020054476323316E+004	-1.8275531E-001	-1.9598825E-001	0
4.020054596323322E+004	-1.8386258E-001	-1.9598125E-001	0
4.020054716323325E+004	-1.8495077E-001	-1.9598316E-001	0
4.020054816323321E+004	-1.8601987E-001	-1.9598125E-001	0
4.020054956323316E+004	-1.8710805E-001	-1.9598570E-001	0
4.020055076323319E+004	-1.8817715E-001	-1.9597808E-001	0
4.020055196323316E+004	-1.8928443E-001	-1.9598316E-001	0
4.020055336323322E+004	-1.9048716E-001	-1.9598761E-001	0
4.020055456323327E+004	-1.9167081E-001	-1.9597743E-001	0
4.020055616323324E+004	-1.9273990E-001	-1.9598253E-001	0
4.020055736323318E+004	-1.9409536E-001	-1.9598508E-001	0
4.020055896323320E+004	-1.9524083E-001	-1.9598635E-001	0
4.020056036323321E+004	-1.9636719E-001	-1.9599333E-001	0
4.020056176323327E+004	-1.9739811E-001	-1.9598380E-001	0
4.020056316323328E+004	-1.9858176E-001	-1.9598699E-001	0
4.020056456323317E+004	-1.9959357E-001	-1.9598125E-001	0
4.020056576323323E+004	-2.0060539E-001	-1.9597934E-001	0
4.020056736323325E+004	-2.0163631E-001	-1.9598825E-001	0
4.020056876323326E+004	-2.0280087E-001	-1.9598125E-001	0
4.020057036323330E+004	-2.0386997E-001	-1.9598444E-001	0
4.020057176323328E+004	-2.0495816E-001	-1.9598062E-001	0
4.020057336323324E+004	-2.0600815E-001	-1.9597934E-001	0
4.020057476323325E+004	-2.0705816E-001	-1.9598635E-001	0
4.020057636323315E+004	-2.0822272E-001	-1.9598444E-001	0
4.020057816323321E+004	-2.0936817E-001	-1.9598952E-001	0
4.020057976323320E+004	-2.1039909E-001	-1.9598570E-001	0
4.020058136323327E+004	-2.1143000E-001	-1.9598444E-001	0
4.020058316323324E+004	-2.1257547E-001	-1.9598316E-001	0
4.020058496323321E+004	-2.1360637E-001	-1.9598380E-001	0
4.020058656323323E+004	-2.1473275E-001	-1.9598316E-001	0
4.020058836323326E+004	-2.1595457E-001	-1.9599016E-001	0
4.020059036323329E+004	-2.1708095E-001	-1.9598635E-001	0
4.020059216323320E+004	-2.1816914E-001	-1.9598508E-001	0
4.020059396323324E+004	-2.1918096E-001	-1.9598570E-001	0
4.020059576323326E+004	-2.2023097E-001	-1.9598570E-001	0
4.020059756323333E+004	-2.2130007E-001	-1.9598253E-001	0
4.020059956323332E+004	-2.2238825E-001	-1.9598380E-001	0
4.020060156323327E+004	-2.2345734E-001	-1.9598062E-001	0
4.020060336323327E+004	-2.2448826E-001	-1.9598380E-001	0
4.020060556323334E+004	-2.2559553E-001	-1.9598508E-001	0
4.020060776323325E+004	-2.2670281E-001	-1.9598699E-001	0
4.020060976323328E+004	-2.2775282E-001	-1.9598444E-001	0
4.020061176323332E+004	-2.2882192E-001	-1.9598189E-001	0
4.020061376323338E+004	-2.2983374E-001	-1.9598761E-001	0
4.020061596323329E+004	-2.3086466E-001	-1.9597934E-001	0
4.020061816323333E+004	-2.3193376E-001	-1.9599143E-001	0
4.020062036323338E+004	-2.3302194E-001	-1.9598380E-001	0
4.020062256323337E+004	-2.3405285E-001	-1.9598635E-001	0
4.020062516323333E+004	-2.3510286E-001	-1.9597870E-001	0
4.020062756323337E+004	-2.3611468E-001	-1.9598253E-001	0
4.020062976323342E+004	-2.3712651E-001	-1.9598825E-001	0
4.020063216323336E+004	-2.3827197E-001	-1.9598444E-001	0
4.020063476323336E+004	-2.3936015E-001	-1.9598444E-001	0
4.020063716323333E+004	-2.4042925E-001	-1.9598444E-001	0
4.020063996323338E+004	-2.4146017E-001	-1.9598699E-001	0
4.020064256323338E+004	-2.4251017E-001	-1.9598570E-001	0
4.020064516323333E+004	-2.4359836E-001	-1.9599080E-001	0
4.020064816323342E+004	-2.4466746E-001	-1.9598570E-001	0
4.020065096323332E+004	-2.4567929E-001	-1.9598253E-001	0
4.020065376323333E+004	-2.4682474E-001	-1.9598825E-001	0
4.020065716323344E+004	-2.4808475E-001	-1.9598508E-001	0
4.020066056323337E+004	-2.4915385E-001	-1.9598508E-001	0
4.020066376323346E+004	-2.5022295E-001	-1.9598761E-001	0
4.020066696323338E+004	-2.5131112E-001	-1.9598699E-001	0
4.020067016323342E+004	-2.5236112E-001	-1.9598062E-001	0
4.020067356323346E+004	-2.5339204E-001	-1.9598253E-001	0
4.020067696323339E+004	-2.5442296E-001	-1.9598062E-001	0
4.020068076323345E+004	-2.5549206E-001	-1.9598444E-001	0
4.020068456323346E+004	-2.5654206E-001	-1.9598380E-001	0
4.020068816323351E+004	-2.5759208E-001	-1.9597998E-001	0
4.020069196323346E+004	-2.5860390E-001	-1.9598825E-001	0
4.020069596323353E+004	-2.5973025E-001	-1.9598380E-001	0
4.020070056323346E+004	-2.6076117E-001	-1.9598699E-001	0
4.020070516323345E+004	-2.6188755E-001	-1.9598316E-001	0
4.020071016323345E+004	-2.6301393E-001	-1.9598380E-001	0
4.020071516323354E+004	-2.6408303E-001	-1.9598253E-001	0
4.020072076323349E+004	-2.6509485E-001	-1.9598062E-001	0
4.020072656323350E+004	-2.6612574E-001	-1.9598825E-001	0
4.020073316323350E+004	-2.6715666E-001	-1.9598380E-001	0
4.020074036323349E+004	-2.6822576E-001	-1.9598635E-001	0
4.020074996323357E+004	-2.6923758E-001	-1.9598444E-001	0
4.020076736323361E+004	-2.7024940E-001	-1.9598125E-001	0
4.020080036323366E+004	-2.6916122E-001	-1.9597998E-001	0
4.020081176323374E+004	-2.6813030E-001	-1.9598761E-001	0
4.020082016323377E+004	-2.6698485E-001	-1.9599016E-001	0
4.020082716323365E+004	-2.6595393E-001	-1.9598889E-001	0
4.020083296323376E+004	-2.6494211E-001	-1.9598635E-001	0
4.020083816323371E+004	-2.6385391E-001	-1.9598761E-001	0
4.020084336323373E+004	-2.6284209E-001	-1.9598380E-001	0
4.020084816323378E+004	-2.6181120E-001	-1.9598444E-001	0
4.020085336323373E+004	-2.6076117E-001	-1.9598316E-001	0
4.020085796323372E+004	-2.5974935E-001	-1.9598570E-001	0
4.020086176323378E+004	-2.5871843E-001	-1.9598444E-001	0
4.020086576323374E+004	-2.5766844E-001	-1.9598699E-001	0
4.020086996323382E+004	-2.5661844E-001	-1.9598380E-001	0
4.020087436323380E+004	-2.5558752E-001	-1.9598508E-001	0
4.020087836323387E+004	-2.5451842E-001	-1.9599143E-001	0
4.020088236323383E+004	-2.5348750E-001	-1.9597998E-001	0
4.020088636323379E+004	-2.5228477E-001	-1.9598699E-001	0
4.020089016323385E+004	-2.5117749E-001	-1.9598825E-001	0
4.020089436323381E+004	-2.5016567E-001	-1.9597998E-001	0
4.020089816323388E+004	-2.4905840E-001	-1.9597808E-001	0
4.020090176323382E+004	-2.4797021E-001	-1.9598508E-001	0
4.020090636323389E+004	-2.4680565E-001	-1.9598952E-001	0
4.020091036323384E+004	-2.4579383E-001	-1.9598761E-001	0
4.020091376323393E+004	-2.4478200E-001	-1.9597998E-001	0
4.020091716323385E+004	-2.4375109E-001	-1.9598761E-001	0
4.020092136323394E+004	-2.4262471E-001	-1.9598570E-001	0
4.020092556323389E+004	-2.4146017E-001	-1.9598889E-001	0
4.020092996323397E+004	-2.4039108E-001	-1.9598316E-001	0
4.020093396323390E+004	-2.3934107E-001	-1.9598635E-001	0
4.020093796323400E+004	-2.3827197E-001	-1.9598316E-001	0
4.020094196323393E+004	-2.3726015E-001	-1.9598761E-001	0
4.020094636323396E+004	-2.3622923E-001	-1.9597870E-001	0
4.020094996323396E+004	-2.3516013E-001	-1.9599080E-001	0
4.020095476323389E+004	-2.3399559E-001	-1.9598508E-001	0
4.020095916323387E+004	-2.3296466E-001	-1.9598699E-001	0
4.020096396323398E+004	-2.3187648E-001	-1.9598444E-001	0
4.020096836323396E+004	-2.3082647E-001	-1.9598570E-001	0
4.020097276323402E+004	-2.2979556E-001	-1.9598380E-001	0
4.020097736323398E+004	-2.2868828E-001	-1.9598761E-001	0
4.020098276323394E+004	-2.2761919E-001	-1.9598699E-001	0
4.020098776323406E+004	-2.2658826E-001	-1.9598253E-001	0
4.020099256323400E+004	-2.2557645E-001	-1.9598380E-001	0
4.020099776323407E+004	-2.2454552E-001	-1.9598761E-001	0
4.020100356323412E+004	-2.2349553E-001	-1.9598699E-001	0
4.020100856323406E+004	-2.2240734E-001	-1.9598508E-001	0
4.020101476323407E+004	-2.2139551E-001	-1.9598761E-001	0
4.020102116323402E+004	-2.2034551E-001	-1.9598444E-001	0
4.020102756323405E+004	-2.1933368E-001	-1.9598761E-001	0
4.020103396323405E+004	-2.1828368E-001	-1.9598062E-001	0
4.020104116323404E+004	-2.1719550E-001	-1.9597934E-001	0
4.020104796323413E+004	-2.1612640E-001	-1.9598508E-001	0
4.020105536323419E+004	-2.1507639E-001	-1.9597870E-001	0
4.020106356323417E+004	-2.1393092E-001	-1.9597998E-001	0
4.020107196323422E+004	-2.1290001E-001	-1.9598189E-001	0
4.020108176323422E+004	-2.1181183E-001	-1.9598635E-001	0
4.020109076323424E+004	-2.1078090E-001	-1.9598699E-001	0
4.020110016323416E+004	-2.0976909E-001	-1.9598570E-001	0
4.020110916323423E+004	-2.0873818E-001	-1.9598444E-001	0
4.020111896323424E+004	-2.0763089E-001	-1.9598699E-001	0
4.020113136323425E+004	-2.0656179E-001	-1.9598444E-001	0
4.020114256323432E+004	-2.0547360E-001	-1.9598253E-001	0
4.020115476323431E+004	-2.0446178E-001	-1.9598508E-001	0
4.020116656323429E+004	-2.0343088E-001	-1.9598380E-001	0
4.020117776323436E+004	-2.0239995E-001	-1.9598761E-001	0
4.020119216323440E+004	-2.0138814E-001	-1.9598316E-001	0
4.020120476323436E+004	-2.0037630E-001	-1.9598253E-001	0
4.020121836323442E+004	-1.9936448E-001	-1.9598761E-001	0
4.020123156323447E+004	-1.9835266E-001	-1.9598635E-001	0
4.020124716323451E+004	-1.9730265E-001	-1.9598189E-001	0
4.020126396323449E+004	-1.9627173E-001	-1.9598125E-001	0
4.020128036323457E+004	-1.9525991E-001	-1.9598316E-001	0
4.020129696323464E+004	-1.9422901E-001	-1.9598825E-001	0
4.020131616323463E+004	-1.9321717E-001	-1.9598189E-001	0
4.020133276323468E+004	-1.9214807E-001	-1.9599143E-001	0
4.020135396323469E+004	-1.9113626E-001	-1.9598062E-001	0
4.020137356323469E+004	-1.9012444E-001	-1.9598761E-001	0
4.020139456323473E+004	-1.8911260E-001	-1.9598825E-001	0
4.020141256323480E+004	-1.8810079E-001	-1.9598952E-001	0
4.020143756323491E+004	-1.8703169E-001	-1.9598062E-001	0
4.020146016323485E+004	-1.8601987E-001	-1.9598189E-001	0
4.020148836323500E+004	-1.8491259E-001	-1.9598635E-001	0
4.020151516323502E+004	-1.8390076E-001	-1.9598761E-001	0
4.020154456323502E+004	-1.8288894E-001	-1.9598444E-001	0
4.020157416323513E+004	-1.8187712E-001	-1.9598952E-001	0
4.020160496323521E+004	-1.8086529E-001	-1.9598699E-001	0
4.020163816323515E+004	-1.7979619E-001	-1.9598189E-001	0
4.020167436323524E+004	-1.7878437E-001	-1.9599207E-001	0
4.020171296323533E+004	-1.7777255E-001	-1.9598380E-001	0
4.020175016323543E+004	-1.7672254E-001	-1.9598508E-001	0
4.020179496323550E+004	-1.7571072E-001	-1.9598253E-001	0
4.020184376323558E+004	-1.7466071E-001	-1.9598508E-001	0
4.020189816323575E+004	-1.7357253E-001	-1.9598952E-001	0
4.020195616323582E+004	-1.7252252E-001	-1.9598508E-001	0
4.020202236323594E+004	-1.7149161E-001	-1.9599080E-001	0
4.020209536323603E+004	-1.7044160E-001	-1.9597679E-001	0
4.020217316323624E+004	-1.6941068E-001	-1.9598062E-001	0
4.020226216323636E+004	-1.6839886E-001	-1.9598444E-001	0
4.020236056323652E+004	-1.6738704E-001	-1.9598570E-001	0
4.020245596323675E+004	-1.6637520E-001	-1.9598635E-001	0
4.020259176323703E+004	-1.6536339E-001	-1.9598952E-001	0
4.020273516323726E+004	-1.6433248E-001	-1.9598699E-001	0
4.020290996323757E+004	-1.6332065E-001	-1.9598380E-001	0
4.020311956323800E+004	-1.6227064E-001	-1.9597870E-001	0
4.020336456323846E+004	-1.6125882E-001	-1.9599271E-001	0
4.020366156323894E+004	-1.6022791E-001	-1.9599016E-001	0
4.020402896323963E+004	-1.5917790E-001	-1.9598508E-001	0
4.020451936324056E+004	-1.5810880E-001	-1.9598189E-001	0
4.020509776324171E+004	-1.5709698E-001	-1.9598699E-001	0
4.020569176324276E+004	-1.5608515E-001	-1.9598444E-001	0
4.020646636324422E+004	-1.5505424E-001	-1.9598825E-001	0
4.020722656324561E+004	-1.5404242E-001	-1.9598635E-001	0
4.020812676324730E+004	-1.5303059E-001	-1.9598316E-001	0
4.020900336324901E+004	-1.5201877E-001	-1.9598699E-001	0
4.020980736325041E+004	-1.5098785E-001	-1.9598761E-001	0
4.021071776325209E+004	-1.4991875E-001	-1.9598444E-001	0
4.021155496325376E+004	-1.4888784E-001	-1.9598316E-001	0
4.021235656325519E+004	-1.4787602E-001	-1.9598062E-001	0
4.021315136325662E+004	-1.4686419E-001	-1.9598699E-001	0
4.021399116325821E+004	-1.4581420E-001	-1.9598635E-001	0
4.021482776325976E+004	-1.4478327E-001	-1.9598380E-001	0
4.021562536326126E+004	-1.4377145E-001	-1.9599016E-001	0
4.021644796326279E+004	-1.4275962E-001	-1.9598189E-001	0
4.021726416326431E+004	-1.4169052E-001	-1.9598699E-001	0
4.021811496326595E+004	-1.4065962E-001	-1.9598825E-001	0
4.021900316326763E+004	-1.3964780E-001	-1.9598062E-001	0
4.021985516326921E+004	-1.3863596E-001	-1.9598508E-001	0
4.022070856327075E+004	-1.3758597E-001	-1.9599207E-001	0
4.022163856327243E+004	-1.3655505E-001	-1.9598253E-001	0
4.022261456327431E+004	-1.3554323E-001	-1.9598952E-001	0
4.022354196327599E+004	-1.3449322E-001	-1.9598125E-001	0
4.022456036327791E+004	-1.3348140E-001	-1.9598699E-001	0
4.022560976327985E+004	-1.3246956E-001	-1.9598444E-001	0
4.022663376328180E+004	-1.3145775E-001	-1.9598761E-001	0
4.022768376328373E+004	-1.3042682E-001	-1.9598125E-001	0
4.022886016328592E+004	-1.2937683E-001	-1.9598889E-001	0
4.023014376328827E+004	-1.2836500E-001	-1.9598952E-001	0
4.023133316329052E+004	-1.2735318E-001	-1.9598825E-001	0
4.023249176329270E+004	-1.2634136E-001	-1.9598189E-001	0
4.023396056329540E+004	-1.2531044E-001	-1.9598761E-001	0
4.023536016329803E+004	-1.2427953E-001	-1.9598761E-001	0
4.023686636330083E+004	-1.2324861E-001	-1.9598316E-001	0
4.023850336330396E+004	-1.2223679E-001	-1.9598253E-001	0
4.024004416330671E+004	-1.2122496E-001	-1.9598508E-001	0
4.024192536331026E+004	-1.2019405E-001	-1.9599080E-001	0
4.024378956331377E+004	-1.1916313E-001	-1.9598825E-001	0
4.024565216331718E+004	-1.1813222E-001	-1.9598889E-001	0
4.024779756332125E+004	-1.1712040E-001	-1.9598825E-001	0
4.025014196332556E+004	-1.1610857E-001	-1.9598761E-001	0
4.025248536332988E+004	-1.1509675E-001	-1.9598761E-001	0
4.025511476333486E+004	-1.1406583E-001	-1.9598570E-001	0
4.025789276333991E+004	-1.1301583E-001	-1.9598062E-001	0
4.026097676334572E+004	-1.1196583E-001	-1.9598189E-001	0
4.026431656335197E+004	-1.1091582E-001	-1.9598952E-001	0
4.026797816335876E+004	-1.0988490E-001	-1.9598444E-001	0
4.027184696336603E+004	-1.0887308E-001	-1.9598316E-001	0
4.027600676337373E+004	-1.0786126E-001	-1.9598699E-001	0
4.028044156338200E+004	-1.0684943E-001	-1.9598253E-001	0
4.028530276339105E+004	-1.0583761E-001	-1.9598508E-001	0
4.029043176340056E+004	-1.0482579E-001	-1.9598889E-001	0
4.029653736341198E+004	-1.0379487E-001	-1.9598699E-001	0
4.030277956342360E+004	-1.0278305E-001	-1.9598508E-001	0
4.030958536343626E+004	-1.0177122E-001	-1.9598508E-001	0
4.031713396345032E+004	-1.0075940E-001	-1.9599016E-001	0
4.032482316346467E+004	-9.9747576E-002	-1.9598570E-001	0
4.033358256348100E+004	-9.8735750E-002	-1.9598761E-001	0
4.034337516349922E+004	-9.7723931E-002	-1.9598316E-001	0
4.035337516351785E+004	-9.7036652E-002	-1.9598761E-001	0
4.036247276353484E+004	-9.6024826E-002	-1.9598444E-001	0
4.037247276355347E+004	-9.5509373E-002	-1.9598570E-001	0
4.038247276357209E+004	-9.4841182E-002	-1.9598570E-001	0
4.039247276359072E+004	-9.4383001E-002	-1.9598635E-001	0
4.040247276360934E+004	-9.3867540E-002	-1.9598825E-001	0
4.041247276362797E+004	-9.3294814E-002	-1.9599207E-001	0
4.042247276364660E+004	-9.2874810E-002	-1.9598889E-001	0
4.043247276366522E+004	-9.2454806E-002	-1.9598952E-001	0
4.044247276368385E+004	-9.2168443E-002	-1.9598952E-001	0
4.045247276370248E+004	-9.1862984E-002	-1.9598635E-001	0
4.046247276372110E+004	-9.1633894E-002	-1.9599143E-001	0
4.047247276373973E+004	-9.1442987E-002	-1.9598444E-001	0
4.048247276375836E+004	-9.1232985E-002	-1.9598761E-001	0
4.049247276377698E+004	-9.0812981E-002	-1.9598508E-001	0
4.050247276379561E+004	-9.0698436E-002	-1.9598699E-001	0
4.051247276381424E+004	-9.0488434E-002	-1.9598889E-001	0
4.052247276383286E+004	-9.0450250E-002	-1.9599462E-001	0
4.053247276385149E+004	-9.0106614E-002	-1.9597743E-001	0
4.054247276387012E+004	-9.0030245E-002	-1.9598699E-001	0
4.055247276388874E+004	-8.9934796E-002	-1.9599271E-001	0
4.056247276390737E+004	-8.9648426E-002	-1.9598508E-001	0
4.057247276392599E+004	-8.9591153E-002	-1.9599143E-001	0
4.058247276394462E+004	-8.9457519E-002	-1.9599016E-001	0
4.059247276396325E+004	-8.9362063E-002	-1.9598253E-001	0
4.060247276398187E+004	-8.9342974E-002	-1.9598761E-001	0
4.061247276400050E+004	-8.9075699E-002	-1.9598761E-001	0
4.062247276401913E+004	-8.8922970E-002	-1.9598889E-001	0
4.063247276403775E+004	-8.8846609E-002	-1.9599080E-001	0
4.064247276405638E+004	-8.8636607E-002	-1.9598253E-001	0
4.065247276407501E+004	-8.8693880E-002	-1.9598635E-001	0
4.066247276409363E+004	-8.8560238E-002	-1.9598189E-001	0
4.067247276411226E+004	-8.8331148E-002	-1.9598889E-001	0
4.068247276413089E+004	-8.8426605E-002	-1.9598952E-001	0
4.069247276414951E+004	-8.8331148E-002	-1.9598189E-001	0
4.070247276416814E+004	-8.8235691E-002	-1.9599397E-001	0
4.071247276418676E+004	-8.8140242E-002	-1.9598444E-001	0
4.072247276420539E+004	-8.8063873E-002	-1.9598699E-001	0
4.073247276422402E+004	-8.7930240E-002	-1.9599016E-001	0
4.074247276424264E+004	-8.7872967E-002	-1.9598761E-001	0
4.075247276426127E+004	-8.7720238E-002	-1.9598189E-001	0
4.076247276427990E+004	-8.7624781E-002	-1.9598316E-001	0
4.077247276429852E+004	-8.7605692E-002	-1.9598825E-001	0
4.078247276431715E+004	-8.7548420E-002	-1.9598699E-001	0
4.079247276433578E+004	-8.7510236E-002	-1.9598635E-001	0
4.080247276435440E+004	-8.7376595E-002	-1.9598444E-001	0
4.081247276437303E+004	-8.7223873E-002	-1.9599143E-001	0
4.082247276439166E+004	-8.7262049E-002	-1.9598635E-001	0
4.083247276441028E+004	-8.7185688E-002	-1.9598889E-001	0
4.084247276442891E+004	-8.7128416E-002	-1.9598699E-001	0
4.085247276444754E+004	-8.6842053E-002	-1.9598761E-001	0
4.086247276446616E+004	-8.6937502E-002	-1.9598508E-001	0
4.087247276448479E+004	-8.6651139E-002	-1.9598508E-001	0
4.088247276450341E+004	-8.6727500E-002	-1.9597998E-001	0
4.089247276452204E+004	-8.6670227E-002	-1.9597998E-001	0
4.090247276454067E+004	-8.6651139E-002	-1.9598635E-001	0
4.091247276455929E+004	-8.6479321E-002	-1.9597998E-001	0
4.092247276457792E+004	-8.6383864E-002	-1.9598825E-001	0
4.093247276459655E+004	-8.6326592E-002	-1.9598699E-001	0
4.094247276461517E+004	-8.6288407E-002	-1.9598508E-001	0
4.095247276463380E+004	-8.6269319E-002	-1.9599271E-001	0
4.096247276465243E+004	-8.6173862E-002	-1.9598635E-001	0
4.097247276467105E+004	-8.6021133E-002	-1.9599333E-001	0
4.098247276468968E+004	-8.5982956E-002	-1.9598699E-001	0
4.099247276470831E+004	-8.5887499E-002	-1.9599143E-001	0
4.100247276472693E+004	-8.5830227E-002	-1.9598699E-001	0
4.101247276474556E+004	-8.5811138E-002	-1.9598889E-001	0
4.102247276476418E+004	-8.5696585E-002	-1.9598761E-001	0
4.103247276478281E+004	-8.5562952E-002	-1.9598825E-001	0
4.104247276480144E+004	-8.5505679E-002	-1.9598889E-001	0
4.105247276482006E+004	-8.5448407E-002	-1.9598952E-001	0
4.106247276483869E+004	-8.5257493E-002	-1.9598952E-001	0
4.107247276485732E+004	-8.5200220E-002	-1.9598189E-001	0
4.108247276487594E+004	-8.5219316E-002	-1.9598380E-001	0
4.109247276489457E+004	-8.5123859E-002	-1.9598825E-001	0
4.110247276491320E+004	-8.5047491E-002	-1.9599143E-001	0
4.111247276493182E+004	-8.4932946E-002	-1.9598952E-001	0
4.112247276495045E+004	-8.4856585E-002	-1.9598889E-001	0
4.113247276496908E+004	-8.4761128E-002	-1.9598825E-001	0
4.114247276498770E+004	-8.4818400E-002	-1.9598125E-001	0
4.115247276500633E+004	-8.4780216E-002	-1.9598380E-001	0
4.116247276502496E+004	-8.4551126E-002	-1.9598952E-001	0
4.117247276504358E+004	-8.4493853E-002	-1.9598825E-001	0
4.118247276506221E+004	-8.4493853E-002	-1.9598761E-001	0
4.119247276508083E+004	-8.4245674E-002	-1.9598253E-001	0
4.120247276509946E+004	-8.4169306E-002	-1.9598570E-001	0
4.121247276511809E+004	-8.4188402E-002	-1.9598253E-001	0
4.122247276513671E+004	-8.4150217E-002	-1.9598889E-001	0
4.123247276515534E+004	-8.4054761E-002	-1.9598635E-001	0
4.124247276517397E+004	-8.4035672E-002	-1.9598635E-001	0
4.125247276519259E+004	-8.4131129E-002	-1.9598825E-001	0
4.126247276521122E+004	-8.3787486E-002	-1.9598316E-001	0
4.127247276522985E+004	-8.3844759E-002	-1.9598825E-001	0
4.128247276524847E+004	-8.3711125E-002	-1.9598508E-001	0
4.129247276526710E+004	-8.3577484E-002	-1.9598444E-001	0
4.130247276528573E+004	-8.3615668E-002	-1.9598952E-001	0
4.131247276530435E+004	-8.3482035E-002	-1.9598889E-001	0
4.132247276532298E+004	-8.3520211E-002	-1.9598699E-001	0
4.133247276534160E+004	-8.3310209E-002	-1.9598444E-001	0
4.134247276536023E+004	-8.3214760E-002	-1.9598253E-001	0
4.135247276537886E+004	-8.3329305E-002	-1.9598825E-001	0
4.136247276539748E+004	-8.3310209E-002	-1.9599143E-001	0
4.137247276541611E+004	-8.3252937E-002	-1.9598889E-001	0
4.138247276543474E+004	-8.3004758E-002	-1.9598508E-001	0
4.139247276545336E+004	-8.2985662E-002	-1.9598825E-001	0
4.140247276547199E+004	-8.2928389E-002	-1.9598316E-001	0
4.141247276549062E+004	-8.2813844E-002	-1.9599016E-001	0
4.142247276550924E+004	-8.2871117E-002	-1.9598508E-001	0
4.142988356552302E+004	-8.6078405E-002	-1.9593671E-001	0
4.142988376552303E+004	-8.3405666E-002	-1.9601052E-001	0
4.143988376554166E+004	-8.2718387E-002	-1.9598825E-001	0
4.144988376556028E+004	-8.2699299E-002	-1.9599143E-001	0
4.145988376557891E+004	-8.2737483E-002	-1.9598761E-001	0
4.146988376559754E+004	-8.2508393E-002	-1.9598635E-001	0
4.147988376561616E+004	-8.2374752E-002	-1.9599397E-001	0
4.148988376563479E+004	-8.2508393E-002	-1.9598699E-001	0
4.149988376565342E+004	-8.2317479E-002	-1.9598825E-001	0
4.150988376567204E+004	-8.2355663E-002	-1.9598699E-001	0
4.151988376569067E+004	-8.2374752E-002	-1.9598316E-001	0
4.152988376570930E+004	-8.2260206E-002	-1.9598380E-001	0
4.153988376572792E+004	-8.2298391E-002	-1.9598316E-001	0
4.154988376574655E+004	-8.2145661E-002	-1.9598570E-001	0
4.155988376576517E+004	-8.2107477E-002	-1.9598444E-001	0
4.156988376578380E+004	-8.2031116E-002	-1.9599397E-001	0
4.157988376580243E+004	-8.2012020E-002	-1.9599207E-001	0
4.158988376582105E+004	-8.2088389E-002	-1.9598380E-001	0
4.159988376583968E+004	-8.1878386E-002	-1.9598699E-001	0
4.160988376585831E+004	-8.1897475E-002	-1.9598635E-001	0
4.161988376587693E+004	-8.1878386E-002	-1.9598253E-001	0
4.162988376589556E+004	-8.1782930E-002	-1.9598952E-001	0
4.163988376591419E+004	-8.1821114E-002	-1.9598189E-001	0
4.164988376593281E+004	-8.1611112E-002	-1.9598253E-001	0
4.165988376595144E+004	-8.1725657E-002	-1.9598889E-001	0
4.166988376597007E+004	-8.1744745E-002	-1.9598699E-001	0
4.167988376598869E+004	-8.1458382E-002	-1.9598570E-001	0
4.168988376600732E+004	-8.1572928E-002	-1.9599143E-001	0
4.169988376602595E+004	-8.1572928E-002	-1.9598952E-001	0
4.170988376604457E+004	-8.1458382E-002	-1.9598699E-001	0
4.171988376606320E+004	-8.1477478E-002	-1.9598761E-001	0
4.172988376608182E+004	-8.1267476E-002	-1.9599333E-001	0
4.173988376610045E+004	-8.1305653E-002	-1.9598570E-001	0
4.174988376611908E+004	-8.1229292E-002	-1.9598189E-001	0
4.175988376613770E+004	-8.1248380E-002	-1.9598761E-001	0
4.176988376615633E+004	-8.1286564E-002	-1.9598189E-001	0
4.177988376617496E+004	-8.1133835E-002	-1.9598761E-001	0
4.178988376619358E+004	-8.1038378E-002	-1.9598508E-001	0
4.179988376621221E+004	-8.1019290E-002	-1.9598635E-001	0
4.180988376623084E+004	-8.1133835E-002	-1.9598889E-001	0
4.181988376624946E+004	-8.0981106E-002	-1.9598825E-001	0
4.182988376626809E+004	-8.0981106E-002	-1.9598825E-001	0
4.183988376628672E+004	-8.0981106E-002	-1.9598444E-001	0
4.184988376630534E+004	-8.0866560E-002	-1.9599271E-001	0
4.185988376632397E+004	-8.0790199E-002	-1.9598189E-001	0
4.186988376634259E+004	-8.0790199E-002	-1.9598889E-001	0
4.187988376636122E+004	-8.0809288E-002	-1.9598508E-001	0
4.188988376637985E+004	-8.0656558E-002	-1.9598508E-001	0
4.189988376639847E+004	-8.0599286E-002	-1.9599016E-001	0
4.190988376641710E+004	-8.0752015E-002	-1.9598761E-001	0
4.191988376643573E+004	-8.0561109E-002	-1.9598889E-001	0
4.192988376645435E+004	-8.0618382E-002	-1.9598444E-001	0
4.193988376647298E+004	-8.0637470E-002	-1.9598253E-001	0
4.194988376649161E+004	-8.0656558E-002	-1.9598316E-001	0
4.195988376651023E+004	-8.0389284E-002	-1.9598444E-001	0
4.196988376652886E+004	-8.0484740E-002	-1.9598635E-001	0
4.197988376654749E+004	-8.0484740E-002	-1.9598444E-001	0
4.198988376656611E+004	-8.0389284E-002	-1.9598889E-001	0
4.199988376658474E+004	-8.0312923E-002	-1.9598889E-001	0
4.200048876658591E+004	-8.0427468E-002	-1.9598444E-001	0