time/s	Ewe/V	I/mA	error	
3.473352312255724E+003	3.5201008E-003	-1.9469984E-001	0
3.473352512255718E+003	-5.0591184E-003	-1.9598125E-001	0
3.473352712255713E+003	-9.6952645E-003	-1.9598253E-001	0
3.473352912255708E+003	-1.1699821E-002	-1.9599143E-001	0
3.473353112255703E+003	-1.3303466E-002	-1.9598444E-001	0
3.473353312255698E+003	-1.4735293E-002	-1.9598825E-001	0
3.473353512255693E+003	-1.6014390E-002	-1.9599271E-001	0
3.473353712255688E+003	-1.7312579E-002	-1.9598444E-001	0
3.473353912255683E+003	-1.8438948E-002	-1.9599143E-001	0
3.473354112255678E+003	-1.9622592E-002	-1.9598570E-001	0
3.473354312255673E+003	-2.0710779E-002	-1.9599780E-001	0
3.473354512255668E+003	-2.1798966E-002	-1.9598444E-001	0
3.473354912255658E+003	-2.3898978E-002	-1.9598889E-001	0
3.473355312255648E+003	-2.5846262E-002	-1.9598761E-001	0
3.473355712255638E+003	-2.7793545E-002	-1.9598825E-001	0
3.473356112255628E+003	-2.9473554E-002	-1.9599524E-001	0
3.473356512255617E+003	-3.1210838E-002	-1.9598952E-001	0
3.473356912255607E+003	-3.2833572E-002	-1.9599271E-001	0
3.473357312255597E+003	-3.4456309E-002	-1.9599333E-001	0
3.473357712255587E+003	-3.5983589E-002	-1.9598635E-001	0
3.473358112255577E+003	-3.7453599E-002	-1.9599397E-001	0
3.473358512255567E+003	-3.9229061E-002	-1.9599016E-001	0
3.473358912255557E+003	-4.0431798E-002	-1.9599080E-001	0
3.473359312255547E+003	-4.1920897E-002	-1.9599143E-001	0
3.473359712255537E+003	-4.3352719E-002	-1.9598889E-001	0
3.473360112255526E+003	-4.4650909E-002	-1.9598825E-001	0
3.473360512255516E+003	-4.6025462E-002	-1.9598570E-001	0
3.473360912255506E+003	-4.7285471E-002	-1.9599397E-001	0
3.473361312255496E+003	-4.8660021E-002	-1.9598570E-001	0
3.473361712255486E+003	-4.9900938E-002	-1.9598952E-001	0
3.473362112255476E+003	-5.1046401E-002	-1.9598444E-001	0
3.473362512255466E+003	-5.2401863E-002	-1.9598761E-001	0
3.473362912255456E+003	-5.3566415E-002	-1.9598825E-001	0
3.473363312255446E+003	-5.4769147E-002	-1.9598570E-001	0
3.473363712255436E+003	-5.5876426E-002	-1.9599016E-001	0
3.473364112255425E+003	-5.7079159E-002	-1.9599271E-001	0
3.473364512255415E+003	-5.8167350E-002	-1.9598635E-001	0
3.473364912255405E+003	-5.9427354E-002	-1.9599080E-001	0
3.473365312255395E+003	-6.0458269E-002	-1.9599016E-001	0
3.473365712255385E+003	-6.1527368E-002	-1.9598889E-001	0
3.473366112255375E+003	-6.2653735E-002	-1.9599271E-001	0
3.473366712255360E+003	-6.4104654E-002	-1.9598761E-001	0
3.473367112255350E+003	-6.5135568E-002	-1.9599207E-001	0
3.473367512255340E+003	-6.6223755E-002	-1.9598952E-001	0
3.473368112255324E+003	-6.7827396E-002	-1.9599333E-001	0
3.473368712255309E+003	-6.9278315E-002	-1.9598889E-001	0
3.473369312255294E+003	-7.0767418E-002	-1.9599524E-001	0
3.473369912255279E+003	-7.2218336E-002	-1.9598825E-001	0
3.473370312255269E+003	-7.3249251E-002	-1.9598508E-001	0
3.473370912255254E+003	-7.4547440E-002	-1.9598380E-001	0
3.473371512255238E+003	-7.5960174E-002	-1.9598635E-001	0
3.473372112255223E+003	-7.7277452E-002	-1.9598761E-001	0
3.473372712255208E+003	-7.8690186E-002	-1.9599207E-001	0
3.473373312255193E+003	-8.0007464E-002	-1.9598699E-001	0
3.473373912255178E+003	-8.1191108E-002	-1.9599143E-001	0
3.473374312255168E+003	-8.2202934E-002	-1.9598253E-001	0
3.473374912255153E+003	-8.3367482E-002	-1.9599080E-001	0
3.473375512255137E+003	-8.4589310E-002	-1.9598570E-001	0
3.473376112255122E+003	-8.5887499E-002	-1.9599080E-001	0
3.473376712255107E+003	-8.7071143E-002	-1.9598444E-001	0
3.473377312255092E+003	-8.8216603E-002	-1.9599397E-001	0
3.473377912255077E+003	-8.9419335E-002	-1.9598699E-001	0
3.473378512255062E+003	-9.0545706E-002	-1.9599143E-001	0
3.473379112255046E+003	-9.1786623E-002	-1.9598699E-001	0
3.473379912255026E+003	-9.3199357E-002	-1.9599333E-001	0
3.473380512255011E+003	-9.4230272E-002	-1.9599016E-001	0
3.473381112254996E+003	-9.5490277E-002	-1.9599780E-001	0
3.473381912254976E+003	-9.6903011E-002	-1.9598952E-001	0
3.473382512254961E+003	-9.8029383E-002	-1.9599397E-001	0
3.473383312254940E+003	-9.9213026E-002	-1.9599524E-001	0
3.473383912254925E+003	-1.0033940E-001	-1.9598889E-001	0
3.473384512254910E+003	-1.0135122E-001	-1.9599333E-001	0
3.473385112254895E+003	-1.0236304E-001	-1.9598952E-001	0
3.473385712254880E+003	-1.0339396E-001	-1.9599143E-001	0
3.473386312254865E+003	-1.0448214E-001	-1.9598761E-001	0
3.473387112254844E+003	-1.0560852E-001	-1.9598635E-001	0
3.473387912254824E+003	-1.0694489E-001	-1.9599080E-001	0
3.473388712254804E+003	-1.0822398E-001	-1.9598952E-001	0
3.473389312254789E+003	-1.0927399E-001	-1.9599333E-001	0
3.473390112254769E+003	-1.1034309E-001	-1.9599271E-001	0
3.473390912254748E+003	-1.1152673E-001	-1.9598952E-001	0
3.473391712254728E+003	-1.1265310E-001	-1.9598952E-001	0
3.473392512254708E+003	-1.1393220E-001	-1.9599271E-001	0
3.473393312254688E+003	-1.1498220E-001	-1.9599207E-001	0
3.473394112254668E+003	-1.1629949E-001	-1.9599016E-001	0
3.473394912254647E+003	-1.1738767E-001	-1.9598761E-001	0
3.473395712254627E+003	-1.1847586E-001	-1.9599590E-001	0
3.473396712254602E+003	-1.1986950E-001	-1.9599590E-001	0
3.473397712254577E+003	-1.2101497E-001	-1.9598508E-001	0
3.473398512254556E+003	-1.2227497E-001	-1.9598570E-001	0
3.473399512254531E+003	-1.2343952E-001	-1.9598952E-001	0
3.473400312254511E+003	-1.2454680E-001	-1.9598825E-001	0
3.473401312254486E+003	-1.2576862E-001	-1.9599016E-001	0
3.473402312254460E+003	-1.2695226E-001	-1.9598825E-001	0
3.473403312254435E+003	-1.2809773E-001	-1.9598570E-001	0
3.473404312254410E+003	-1.2933864E-001	-1.9599271E-001	0
3.473405312254385E+003	-1.3050319E-001	-1.9599080E-001	0
3.473406312254359E+003	-1.3176320E-001	-1.9599207E-001	0
3.473407312254334E+003	-1.3279411E-001	-1.9599271E-001	0
3.473408312254309E+003	-1.3388230E-001	-1.9599333E-001	0
3.473409112254289E+003	-1.3491322E-001	-1.9599652E-001	0
3.473410112254263E+003	-1.3600141E-001	-1.9599207E-001	0
3.473411312254233E+003	-1.3722323E-001	-1.9598825E-001	0
3.473412312254208E+003	-1.3833050E-001	-1.9598699E-001	0
3.473413512254177E+003	-1.3953325E-001	-1.9599715E-001	0
3.473414512254152E+003	-1.4056416E-001	-1.9599143E-001	0
3.473415712254122E+003	-1.4165235E-001	-1.9599271E-001	0
3.473416912254092E+003	-1.4285508E-001	-1.9598761E-001	0
3.473417912254066E+003	-1.4394327E-001	-1.9598952E-001	0
3.473419112254036E+003	-1.4503145E-001	-1.9598825E-001	0
3.473420312254006E+003	-1.4606237E-001	-1.9599271E-001	0
3.473421312253980E+003	-1.4711238E-001	-1.9599016E-001	0
3.473422712253945E+003	-1.4831512E-001	-1.9598889E-001	0
3.473423712253920E+003	-1.4932694E-001	-1.9598570E-001	0
3.473424912253889E+003	-1.5033875E-001	-1.9598952E-001	0
3.473426312253854E+003	-1.5152240E-001	-1.9598952E-001	0
3.473427712253819E+003	-1.5274423E-001	-1.9599271E-001	0
3.473429112253783E+003	-1.5383242E-001	-1.9599271E-001	0
3.473430512253748E+003	-1.5505424E-001	-1.9599080E-001	0
3.473431912253713E+003	-1.5614243E-001	-1.9598889E-001	0
3.473433312253677E+003	-1.5719244E-001	-1.9598699E-001	0
3.473434712253642E+003	-1.5822335E-001	-1.9599080E-001	0
3.473436112253607E+003	-1.5934972E-001	-1.9598761E-001	0
3.473437512253571E+003	-1.6038063E-001	-1.9599080E-001	0
3.473439112253531E+003	-1.6150700E-001	-1.9598635E-001	0
3.473440512253495E+003	-1.6251883E-001	-1.9598889E-001	0
3.473442112253455E+003	-1.6356882E-001	-1.9598889E-001	0
3.473443512253420E+003	-1.6458066E-001	-1.9599080E-001	0
3.473444912253384E+003	-1.6559248E-001	-1.9598825E-001	0
3.473446712253339E+003	-1.6668066E-001	-1.9598699E-001	0
3.473448112253303E+003	-1.6771159E-001	-1.9599590E-001	0
3.473450112253253E+003	-1.6878068E-001	-1.9598635E-001	0
3.473451712253212E+003	-1.6981159E-001	-1.9598825E-001	0
3.473453512253167E+003	-1.7088069E-001	-1.9598825E-001	0
3.473455112253127E+003	-1.7191160E-001	-1.9598952E-001	0
3.473456712253086E+003	-1.7298070E-001	-1.9599080E-001	0
3.473458912253031E+003	-1.7410707E-001	-1.9599080E-001	0
3.473460912252980E+003	-1.7523344E-001	-1.9599333E-001	0
3.473463112252924E+003	-1.7641708E-001	-1.9599080E-001	0
3.473465112252874E+003	-1.7752436E-001	-1.9598444E-001	0
3.473467312252818E+003	-1.7853619E-001	-1.9598952E-001	0
3.473469312252768E+003	-1.7956710E-001	-1.9598889E-001	0
3.473471512252712E+003	-1.8061711E-001	-1.9598508E-001	0
3.473473712252657E+003	-1.8166712E-001	-1.9598635E-001	0
3.473476112252596E+003	-1.8271711E-001	-1.9599333E-001	0
3.473478112252546E+003	-1.8372895E-001	-1.9598952E-001	0
3.473480712252480E+003	-1.8474077E-001	-1.9599397E-001	0
3.473483312252414E+003	-1.8579078E-001	-1.9598825E-001	0
3.473485912252349E+003	-1.8682168E-001	-1.9599143E-001	0
3.473488512252283E+003	-1.8783352E-001	-1.9599524E-001	0
3.473491312252212E+003	-1.8897897E-001	-1.9598761E-001	0
3.473494512252131E+003	-1.9002898E-001	-1.9598570E-001	0
3.473497512252055E+003	-1.9113626E-001	-1.9599524E-001	0
3.473500712251975E+003	-1.9214807E-001	-1.9599333E-001	0
3.473504312251884E+003	-1.9317900E-001	-1.9598825E-001	0
3.473508112251788E+003	-1.9424810E-001	-1.9599016E-001	0
3.473512112251687E+003	-1.9531719E-001	-1.9599333E-001	0
3.473517112251560E+003	-1.9632901E-001	-1.9599271E-001	0
3.473522912251414E+003	-1.9735992E-001	-1.9599652E-001	0
3.473530912251212E+003	-1.9837175E-001	-1.9598761E-001	0
3.473551512250691E+003	-1.9726448E-001	-1.9599271E-001	0
3.473556712250560E+003	-1.9615719E-001	-1.9598889E-001	0
3.473560512250464E+003	-1.9512628E-001	-1.9599271E-001	0
3.473563912250378E+003	-1.9403809E-001	-1.9599016E-001	0
3.473567112250297E+003	-1.9287354E-001	-1.9598761E-001	0
3.473569912250226E+003	-1.9182353E-001	-1.9599207E-001	0
3.473572512250161E+003	-1.9071625E-001	-1.9599333E-001	0
3.473574912250100E+003	-1.8964715E-001	-1.9599143E-001	0
3.473577312250040E+003	-1.8859716E-001	-1.9599333E-001	0
3.473579712249979E+003	-1.8745169E-001	-1.9599080E-001	0
3.473582112249918E+003	-1.8630622E-001	-1.9599397E-001	0
3.473584512249858E+003	-1.8519895E-001	-1.9599462E-001	0
3.473586912249797E+003	-1.8397713E-001	-1.9599524E-001	0
3.473588912249747E+003	-1.8294621E-001	-1.9598570E-001	0
3.473590912249696E+003	-1.8193439E-001	-1.9599080E-001	0
3.473593112249640E+003	-1.8086529E-001	-1.9599143E-001	0
3.473595112249590E+003	-1.7985347E-001	-1.9598952E-001	0
3.473597112249539E+003	-1.7872709E-001	-1.9598635E-001	0
3.473598912249494E+003	-1.7771527E-001	-1.9599397E-001	0
3.473601112249438E+003	-1.7670345E-001	-1.9599397E-001	0
3.473603312249383E+003	-1.7557707E-001	-1.9599143E-001	0
3.473605312249332E+003	-1.7450798E-001	-1.9599207E-001	0
3.473607312249282E+003	-1.7349616E-001	-1.9598444E-001	0
3.473609512249226E+003	-1.7236979E-001	-1.9599207E-001	0
3.473612112249160E+003	-1.7110978E-001	-1.9599271E-001	0
3.473614712249095E+003	-1.6992614E-001	-1.9598635E-001	0
3.473616712249044E+003	-1.6889523E-001	-1.9599333E-001	0
3.473618912248989E+003	-1.6771159E-001	-1.9599143E-001	0
3.473621312248928E+003	-1.6666158E-001	-1.9598444E-001	0
3.473623512248872E+003	-1.6561157E-001	-1.9599207E-001	0
3.473625712248817E+003	-1.6458066E-001	-1.9599462E-001	0
3.473628112248756E+003	-1.6354974E-001	-1.9598508E-001	0
3.473630512248696E+003	-1.6240428E-001	-1.9599271E-001	0
3.473632912248635E+003	-1.6129699E-001	-1.9599143E-001	0
3.473635512248569E+003	-1.6009426E-001	-1.9598761E-001	0
3.473638312248499E+003	-1.5908244E-001	-1.9599080E-001	0
3.473640712248438E+003	-1.5795608E-001	-1.9599207E-001	0
3.473643512248367E+003	-1.5688698E-001	-1.9599207E-001	0
3.473645712248312E+003	-1.5583697E-001	-1.9598444E-001	0
3.473648912248231E+003	-1.5480606E-001	-1.9599080E-001	0
3.473651112248175E+003	-1.5373696E-001	-1.9598825E-001	0
3.473654112248099E+003	-1.5264878E-001	-1.9598761E-001	0
3.473657312248019E+003	-1.5150331E-001	-1.9599652E-001	0
3.473660112247948E+003	-1.5047240E-001	-1.9598825E-001	0
3.473663112247872E+003	-1.4940330E-001	-1.9599016E-001	0
3.473666312247791E+003	-1.4835329E-001	-1.9599143E-001	0
3.473669512247710E+003	-1.4726511E-001	-1.9599462E-001	0
3.473672712247630E+003	-1.4619601E-001	-1.9599143E-001	0
3.473675512247559E+003	-1.4503145E-001	-1.9599397E-001	0
3.473678712247478E+003	-1.4400055E-001	-1.9599271E-001	0
3.473682912247372E+003	-1.4289327E-001	-1.9599143E-001	0
3.473686312247286E+003	-1.4182417E-001	-1.9598635E-001	0
3.473690112247190E+003	-1.4079325E-001	-1.9598699E-001	0
3.473693512247104E+003	-1.3972415E-001	-1.9598952E-001	0
3.473697912246993E+003	-1.3857870E-001	-1.9598952E-001	0
3.473701712246897E+003	-1.3752869E-001	-1.9599080E-001	0
3.473705912246791E+003	-1.3642141E-001	-1.9599652E-001	0
3.473710512246675E+003	-1.3537140E-001	-1.9599080E-001	0
3.473714912246563E+003	-1.3430230E-001	-1.9599397E-001	0
3.473719512246447E+003	-1.3313775E-001	-1.9598570E-001	0
3.473724512246321E+003	-1.3208775E-001	-1.9598761E-001	0
3.473729312246200E+003	-1.3105683E-001	-1.9598889E-001	0
3.473734112246078E+003	-1.3002592E-001	-1.9598444E-001	0
3.473739512245942E+003	-1.2899500E-001	-1.9599016E-001	0
3.473744712245811E+003	-1.2796409E-001	-1.9598825E-001	0
3.473750312245669E+003	-1.2691408E-001	-1.9598952E-001	0
3.473756112245523E+003	-1.2586407E-001	-1.9598761E-001	0
3.473762512245361E+003	-1.2471862E-001	-1.9598699E-001	0
3.473769912245174E+003	-1.2364952E-001	-1.9599080E-001	0
3.473776312245012E+003	-1.2263770E-001	-1.9598825E-001	0
3.473783312244836E+003	-1.2162588E-001	-1.9598699E-001	0
3.473790712244649E+003	-1.2055678E-001	-1.9599143E-001	0
3.473798912244441E+003	-1.1952586E-001	-1.9599143E-001	0
3.473807312244229E+003	-1.1851404E-001	-1.9599843E-001	0
3.473815912244012E+003	-1.1750222E-001	-1.9598699E-001	0
3.473824512243795E+003	-1.1647131E-001	-1.9599207E-001	0
3.473834912243532E+003	-1.1540221E-001	-1.9599590E-001	0
3.473845112243274E+003	-1.1437129E-001	-1.9598889E-001	0
3.473856912242976E+003	-1.1332129E-001	-1.9598380E-001	0
3.473869712242653E+003	-1.1227128E-001	-1.9598952E-001	0
3.473883312242309E+003	-1.1125945E-001	-1.9599397E-001	0
3.473896712241971E+003	-1.1024763E-001	-1.9599016E-001	0
3.473912112241582E+003	-1.0923581E-001	-1.9599207E-001	0
3.473929112241152E+003	-1.0822398E-001	-1.9598635E-001	0
3.473947312240693E+003	-1.0721216E-001	-1.9599333E-001	0
3.473967512240182E+003	-1.0620034E-001	-1.9599397E-001	0
3.473989912239616E+003	-1.0518851E-001	-1.9599333E-001	0
3.474015712238965E+003	-1.0415760E-001	-1.9599143E-001	0
3.474045512238212E+003	-1.0314578E-001	-1.9599271E-001	0
3.474075312237459E+003	-1.0213395E-001	-1.9599333E-001	0
3.474112912236509E+003	-1.0112213E-001	-1.9599207E-001	0
3.474153112235494E+003	-1.0009121E-001	-1.9598889E-001	0
3.474206512234145E+003	-9.9079393E-002	-1.9598761E-001	0
3.474266112232639E+003	-9.8010294E-002	-1.9599271E-001	0
3.474339112230795E+003	-9.6998468E-002	-1.9598889E-001	0
3.474417512228814E+003	-9.5929369E-002	-1.9598635E-001	0
3.474546112225566E+003	-9.4879366E-002	-1.9599397E-001	0
3.474683112222105E+003	-9.3867540E-002	-1.9599524E-001	0
3.474859312217654E+003	-9.2779353E-002	-1.9599016E-001	0
3.475127712210873E+003	-9.1748439E-002	-1.9599016E-001	0
3.475473112202148E+003	-9.0736613E-002	-1.9598825E-001	0
3.475964312189739E+003	-8.9724794E-002	-1.9599590E-001	0
3.476621312173142E+003	-8.8712968E-002	-1.9599333E-001	0
3.477516312150532E+003	-8.7701142E-002	-1.9599207E-001	0
3.478842912117019E+003	-8.6689323E-002	-1.9599333E-001	0
3.480506712074988E+003	-8.5658409E-002	-1.9599080E-001	0
3.482726712018906E+003	-8.4646583E-002	-1.9598952E-001	0
3.485420311950860E+003	-8.3634757E-002	-1.9599333E-001	0
3.488272311878813E+003	-8.2603842E-002	-1.9599397E-001	0
3.491565911795609E+003	-8.1572928E-002	-1.9599271E-001	0
3.494921511710840E+003	-8.0561109E-002	-1.9598889E-001	0
3.498576111618517E+003	-7.9549283E-002	-1.9598761E-001	0
3.502196711527053E+003	-7.8537457E-002	-1.9598570E-001	0
3.506399511420881E+003	-7.7525638E-002	-1.9599590E-001	0
3.510429511319075E+003	-7.6513812E-002	-1.9599333E-001	0
3.514768711209457E+003	-7.5444713E-002	-1.9599333E-001	0
3.519556711088502E+003	-7.4413799E-002	-1.9599271E-001	0
3.524409710965905E+003	-7.3401973E-002	-1.9598952E-001	0
3.530408310814368E+003	-7.2371058E-002	-1.9598699E-001	0
3.539443710586114E+003	-7.1359240E-002	-1.9599207E-001	0
3.549443710333493E+003	-7.0767418E-002	-1.9599590E-001	0
3.559443710080872E+003	-7.0347413E-002	-1.9599271E-001	0
3.569443709828251E+003	-7.0003778E-002	-1.9599590E-001	0
3.579443709575629E+003	-6.9851048E-002	-1.9599397E-001	0
3.589443709323008E+003	-6.9679230E-002	-1.9598889E-001	0
3.599443709070387E+003	-6.9526501E-002	-1.9599080E-001	0
3.609443708817766E+003	-6.9679230E-002	-1.9598508E-001	0
3.619443708565144E+003	-6.9679230E-002	-1.9598889E-001	0
3.629443708312523E+003	-6.9698319E-002	-1.9599843E-001	0
3.639443708059902E+003	-6.9717407E-002	-1.9598699E-001	0
3.649443707807281E+003	-6.9889233E-002	-1.9598570E-001	0
3.659443707554659E+003	-6.9965594E-002	-1.9599143E-001	0
3.669443707302038E+003	-7.0022866E-002	-1.9599590E-001	0
3.679443707049417E+003	-7.0003778E-002	-1.9599462E-001	0
3.689443706796796E+003	-7.0213780E-002	-1.9599143E-001	0
3.699443706544174E+003	-7.0271052E-002	-1.9599524E-001	0
3.709443706291553E+003	-7.0404686E-002	-1.9599080E-001	0
3.719443706038932E+003	-7.0404686E-002	-1.9599143E-001	0
3.729443705786311E+003	-7.0519231E-002	-1.9599271E-001	0
3.739443705533689E+003	-7.0442870E-002	-1.9599207E-001	0
3.749443705281068E+003	-7.0633776E-002	-1.9599271E-001	0
3.759443705028447E+003	-7.0805594E-002	-1.9599462E-001	0
3.769443704775826E+003	-7.0901051E-002	-1.9599080E-001	0
3.779443704523204E+003	-7.0862867E-002	-1.9599207E-001	0
3.789443704270583E+003	-7.0881963E-002	-1.9599333E-001	0
3.799443704017962E+003	-7.1130142E-002	-1.9598889E-001	0
3.809443703765341E+003	-7.1053781E-002	-1.9599207E-001	0
3.819443703512719E+003	-7.1263783E-002	-1.9599016E-001	0
3.829443703260098E+003	-7.1282871E-002	-1.9599333E-001	0
3.839443703007477E+003	-7.1263783E-002	-1.9599080E-001	0
3.849443702754856E+003	-7.1359240E-002	-1.9599843E-001	0
3.859443702502234E+003	-7.1435601E-002	-1.9599524E-001	0
3.869443702249613E+003	-7.1340144E-002	-1.9599780E-001	0
3.879443701996992E+003	-7.1607418E-002	-1.9599333E-001	0
3.889443701744371E+003	-7.1626514E-002	-1.9599715E-001	0
3.899443701491749E+003	-7.1607418E-002	-1.9600096E-001	0
3.909443701239128E+003	-7.1626514E-002	-1.9599080E-001	0
3.919443700986507E+003	-7.1626514E-002	-1.9599397E-001	0
3.929443700733886E+003	-7.1779236E-002	-1.9599780E-001	0
3.939443700481264E+003	-7.1664691E-002	-1.9599143E-001	0
3.949443700228643E+003	-7.1741059E-002	-1.9599143E-001	0
3.959443699976022E+003	-7.1779236E-002	-1.9598825E-001	0
3.969443699723401E+003	-7.1893789E-002	-1.9599652E-001	0
3.979443699470779E+003	-7.1760148E-002	-1.9599207E-001	0
3.989443699218158E+003	-7.1760148E-002	-1.9599462E-001	0
3.999443698965537E+003	-7.1855605E-002	-1.9599143E-001	0
4.009443698712916E+003	-7.1931966E-002	-1.9599080E-001	0
4.019443698460294E+003	-7.1779236E-002	-1.9599590E-001	0
4.029443698207673E+003	-7.2027422E-002	-1.9599207E-001	0
4.039443697955052E+003	-7.1874693E-002	-1.9599207E-001	0
4.049443697702431E+003	-7.1836509E-002	-1.9599715E-001	0
4.059443697449809E+003	-7.1893789E-002	-1.9599271E-001	0
4.069443697197188E+003	-7.1855605E-002	-1.9599524E-001	0
4.079443696944567E+003	-7.1912877E-002	-1.9599971E-001	0
4.089443696691946E+003	-7.1874693E-002	-1.9599143E-001	0
4.099443696484639E+003	-7.1779236E-002	-1.9598635E-001	0
4.109443696363567E+003	-7.1683787E-002	-1.9599016E-001	0
4.119443696242495E+003	-7.1798332E-002	-1.9599080E-001	0
4.129443696121423E+003	-7.1683787E-002	-1.9599397E-001	0
4.139443696000351E+003	-7.1702875E-002	-1.9599590E-001	0
4.149443695879279E+003	-7.1741059E-002	-1.9599207E-001	0
4.159443695758207E+003	-7.1664691E-002	-1.9599207E-001	0
4.169443695637136E+003	-7.1702875E-002	-1.9599462E-001	0
4.179443695516064E+003	-7.1664691E-002	-1.9599271E-001	0
4.189443695394992E+003	-7.1741059E-002	-1.9599590E-001	0
4.199443695273920E+003	-7.1702875E-002	-1.9599143E-001	0
4.209443695152848E+003	-7.1607418E-002	-1.9599590E-001	0
4.219443695031776E+003	-7.1588330E-002	-1.9599590E-001	0
4.229443694910704E+003	-7.1531057E-002	-1.9599080E-001	0
4.239443694789632E+003	-7.1454689E-002	-1.9599016E-001	0
4.249443694668560E+003	-7.1416512E-002	-1.9599524E-001	0
4.259443694547488E+003	-7.1397416E-002	-1.9599333E-001	0
4.269443694426416E+003	-7.1473785E-002	-1.9599207E-001	0
4.279443694305344E+003	-7.1340144E-002	-1.9598699E-001	0
4.289443694184272E+003	-7.1473785E-002	-1.9599971E-001	0
4.299443694063200E+003	-7.1359240E-002	-1.9599080E-001	0
4.309443693942128E+003	-7.1206510E-002	-1.9599971E-001	0
4.319443693821057E+003	-7.1378328E-002	-1.9599271E-001	0
4.329443693699985E+003	-7.1321055E-002	-1.9599143E-001	0
4.339443693578913E+003	-7.1168326E-002	-1.9599590E-001	0
4.349443693457841E+003	-7.1206510E-002	-1.9599080E-001	0
4.359443693336769E+003	-7.1206510E-002	-1.9599524E-001	0
4.369443693215697E+003	-7.1072869E-002	-1.9598952E-001	0
4.379443693094625E+003	-7.1072869E-002	-1.9599207E-001	0
4.389443692973553E+003	-7.1034692E-002	-1.9599333E-001	0
4.399443692852481E+003	-7.1015596E-002	-1.9598825E-001	0
4.409443692731409E+003	-7.0958324E-002	-1.9598635E-001	0
4.419443692610337E+003	-7.0881963E-002	-1.9599207E-001	0
4.429443692489265E+003	-7.0901051E-002	-1.9598699E-001	0
4.439443692368193E+003	-7.0862867E-002	-1.9599524E-001	0
4.449443692247121E+003	-7.0862867E-002	-1.9599843E-001	0
4.459443692126049E+003	-7.0748322E-002	-1.9599016E-001	0
4.469443692004977E+003	-7.0862867E-002	-1.9599524E-001	0
4.479443691883906E+003	-7.0843779E-002	-1.9599333E-001	0
4.489443691762834E+003	-7.0767418E-002	-1.9598952E-001	0
4.499443691641762E+003	-7.0767418E-002	-1.9599080E-001	0
4.509443691520690E+003	-7.0748322E-002	-1.9599271E-001	0
4.519443691399618E+003	-7.0824690E-002	-1.9599715E-001	0
4.529443691278546E+003	-7.0652872E-002	-1.9599333E-001	0
4.539443691157474E+003	-7.0557415E-002	-1.9598699E-001	0
4.549443691036402E+003	-7.0461959E-002	-1.9599207E-001	0
4.559443690915330E+003	-7.0691049E-002	-1.9599652E-001	0
4.569443690794258E+003	-7.0481047E-002	-1.9599971E-001	0
4.579443690673186E+003	-7.0461959E-002	-1.9599271E-001	0
4.589443690552114E+003	-7.0481047E-002	-1.9599271E-001	0
4.599443690431042E+003	-7.0442870E-002	-1.9599143E-001	0
4.609443690309970E+003	-7.0366502E-002	-1.9599652E-001	0
4.619443690188898E+003	-7.0366502E-002	-1.9599590E-001	0
4.629443690067827E+003	-7.0347413E-002	-1.9598952E-001	0
4.639443689946755E+003	-7.0347413E-002	-1.9598635E-001	0
4.649443689825683E+003	-7.0290141E-002	-1.9599462E-001	0
4.659443689704611E+003	-7.0232868E-002	-1.9600226E-001	0
4.669443689583539E+003	-7.0290141E-002	-1.9599843E-001	0
4.679443689462467E+003	-7.0290141E-002	-1.9599652E-001	0
4.689443689341395E+003	-7.0156500E-002	-1.9598952E-001	0
4.699443689220323E+003	-7.0175596E-002	-1.9599397E-001	0
4.709443689099251E+003	-7.0118323E-002	-1.9599143E-001	0
4.719443688978179E+003	-7.0137411E-002	-1.9599524E-001	0
4.729443688857107E+003	-7.0080139E-002	-1.9599524E-001	0
4.739443688736035E+003	-7.0156500E-002	-1.9599016E-001	0
4.749443688614963E+003	-6.9927409E-002	-1.9598825E-001	0
4.759443688493891E+003	-7.0061050E-002	-1.9598125E-001	0
4.769443688372819E+003	-7.0003778E-002	-1.9598889E-001	0
4.779443688251748E+003	-7.0041955E-002	-1.9599143E-001	0
4.789443688130676E+003	-6.9851048E-002	-1.9599715E-001	0
4.799443688009604E+003	-6.9927409E-002	-1.9599590E-001	0
4.809443687888532E+003	-6.9870137E-002	-1.9598952E-001	0
4.819443687767460E+003	-6.9889233E-002	-1.9598825E-001	0
4.829443687646388E+003	-6.9793776E-002	-1.9599143E-001	0
4.839443687525316E+003	-6.9889233E-002	-1.9599590E-001	0
4.849443687404244E+003	-6.9908321E-002	-1.9598635E-001	0
4.859443687283172E+003	-6.9793776E-002	-1.9599590E-001	0
4.869443687162100E+003	-6.9717407E-002	-1.9599143E-001	0
4.879443687041028E+003	-6.9774680E-002	-1.9599524E-001	0
4.889443686919956E+003	-6.9621958E-002	-1.9599462E-001	0
4.899443686798884E+003	-6.9583774E-002	-1.9599843E-001	0
4.909443686677812E+003	-6.9774680E-002	-1.9599080E-001	0
4.919443686556740E+003	-6.9660135E-002	-1.9599652E-001	0
4.929443686435669E+003	-6.9583774E-002	-1.9599207E-001	0
4.939443686314597E+003	-6.9526501E-002	-1.9599590E-001	0
4.949443686193525E+003	-6.9679230E-002	-1.9599271E-001	0
4.959443686072453E+003	-6.9564685E-002	-1.9598761E-001	0
4.969443685951381E+003	-6.9564685E-002	-1.9599143E-001	0
4.979443685830309E+003	-6.9411956E-002	-1.9599143E-001	0
4.989443685709237E+003	-6.9373772E-002	-1.9599524E-001	0
4.999443685588165E+003	-6.9507405E-002	-1.9599271E-001	0
5.009443685467093E+003	-6.9450133E-002	-1.9599271E-001	0
5.019443685346021E+003	-6.9469228E-002	-1.9598825E-001	0
5.029443685224949E+003	-6.9411956E-002	-1.9599524E-001	0
5.039443685103877E+003	-6.9373772E-002	-1.9599143E-001	0
5.049443684982805E+003	-6.9373772E-002	-1.9599271E-001	0
5.059443684861733E+003	-6.9392860E-002	-1.9598952E-001	0
5.069443684740661E+003	-6.9201954E-002	-1.9599715E-001	0
5.079443684619589E+003	-6.9354683E-002	-1.9599397E-001	0
5.089443684498518E+003	-6.9278315E-002	-1.9599590E-001	0
5.099443684377446E+003	-6.9297411E-002	-1.9599590E-001	0
5.109443684256374E+003	-6.9221042E-002	-1.9598508E-001	0
5.119443684135302E+003	-6.9335587E-002	-1.9599590E-001	0
5.129443684014230E+003	-6.9240138E-002	-1.9599906E-001	0
5.139443683893158E+003	-6.9144681E-002	-1.9599462E-001	0
5.149443683772086E+003	-6.9163769E-002	-1.9599333E-001	0
5.159443683651014E+003	-6.9163769E-002	-1.9599080E-001	0
5.169443683529942E+003	-6.9163769E-002	-1.9600035E-001	0
5.179443683408870E+003	-6.9144681E-002	-1.9599397E-001	0
5.189443683287798E+003	-6.9087408E-002	-1.9599906E-001	0
5.199443683166726E+003	-6.9087408E-002	-1.9598825E-001	0
5.209443683045654E+003	-6.9030136E-002	-1.9598889E-001	0
5.219443682924582E+003	-6.9068313E-002	-1.9599397E-001	0
5.229443682803510E+003	-6.9011040E-002	-1.9599524E-001	0
5.239443682682439E+003	-6.8953767E-002	-1.9598952E-001	0
5.249443682561367E+003	-6.8953767E-002	-1.9598952E-001	0
5.259443682440295E+003	-6.9068313E-002	-1.9599080E-001	0
5.269443682319223E+003	-6.8991952E-002	-1.9599080E-001	0
5.273352282271895E+003	-6.8896495E-002	-1.9599524E-001	0