time/s	Ewe/V	I/mA	error	
6.005299848293362E+001	2.9971972E+000	-2.5015498E-002	0
6.014319848065497E+001	8.5370503E-003	-9.4288321E+000	0
6.014399848063476E+001	8.5752327E-003	-9.3694410E+000	0
6.014479848061455E+001	8.5943239E-003	-9.3110056E+000	0
6.014559848059434E+001	8.6515965E-003	-9.2523146E+000	0
6.014639848057413E+001	8.6325053E-003	-9.1945801E+000	0
6.014719848055393E+001	8.6134141E-003	-9.1369734E+000	0
6.014799848053372E+001	8.8043250E-003	-9.0793648E+000	0
6.014879848051351E+001	8.6134141E-003	-9.0231600E+000	0
6.014959848049330E+001	8.7088700E-003	-8.9673367E+000	0
6.015039848047309E+001	8.7470515E-003	-8.9110050E+000	0
6.015119848045288E+001	8.6325053E-003	-8.8551817E+000	0
6.015199848043267E+001	8.6515965E-003	-8.7998047E+000	0
6.015279848041246E+001	8.6515965E-003	-8.7452564E+000	0
6.015359848039225E+001	8.5752327E-003	-8.6915369E+000	0
6.015439848037204E+001	8.7088700E-003	-8.6371155E+000	0
6.015519848035183E+001	8.6515965E-003	-8.5834589E+000	0
6.015599848033162E+001	8.7088700E-003	-8.5301847E+000	0
6.015679848031141E+001	8.6897789E-003	-8.4776125E+000	0
6.015759848029120E+001	8.6515965E-003	-8.4251022E+000	0
6.015839848027099E+001	8.7852338E-003	-8.3729124E+000	0
6.015919848025078E+001	8.6897789E-003	-8.3214865E+000	0
6.015999848023057E+001	8.7279603E-003	-8.2714624E+000	0
6.016079848021036E+001	8.6897789E-003	-8.2199087E+000	0
6.016179848018510E+001	8.6706877E-003	-8.1582241E+000	0
6.016279848015984E+001	8.7279603E-003	-8.0951996E+000	0
6.016379848013457E+001	8.6706877E-003	-8.0347881E+000	0
6.016479848010931E+001	8.7088700E-003	-7.9737401E+000	0
6.016579848008405E+001	8.6706877E-003	-7.9137111E+000	0
6.016679848005879E+001	8.8043250E-003	-7.8545108E+000	0
6.016779848003353E+001	8.7088700E-003	-7.7956924E+000	0
6.016879848000826E+001	8.5943239E-003	-7.7375751E+000	0
6.016979847998300E+001	8.6515965E-003	-7.6802874E+000	0
6.017079847995774E+001	8.6706877E-003	-7.6239548E+000	0
6.017179847993248E+001	8.6515965E-003	-7.5689592E+000	0
6.017279847990721E+001	8.6134141E-003	-7.5130095E+000	0
6.017379847988195E+001	8.7088700E-003	-7.4583974E+000	0
6.017479847985669E+001	8.6515965E-003	-7.4038491E+000	0
6.017579847983143E+001	8.6515965E-003	-7.3503842E+000	0
6.017679847980617E+001	8.6706877E-003	-7.2975559E+000	0
6.017779847978090E+001	8.5943239E-003	-7.2457480E+000	0
6.017879847975564E+001	8.6515965E-003	-7.1945133E+000	0
6.017979847973038E+001	8.6515965E-003	-7.1431508E+000	0
6.018079847970512E+001	8.6706877E-003	-7.0924897E+000	0
6.018199847967480E+001	8.8043250E-003	-7.0328436E+000	0
6.018319847964449E+001	8.6325053E-003	-6.9737701E+000	0
6.018439847961417E+001	8.6897789E-003	-6.9158444E+000	0
6.018559847958386E+001	8.6897789E-003	-6.8581100E+000	0
6.018679847955354E+001	8.6706877E-003	-6.8012676E+000	0
6.018799847952323E+001	8.6897789E-003	-6.7454443E+000	0
6.018919847949292E+001	8.7279603E-003	-6.6896219E+000	0
6.019039847946260E+001	8.6134141E-003	-6.6360283E+000	0
6.019159847943229E+001	8.7088700E-003	-6.5823731E+000	0
6.019279847940197E+001	8.6134141E-003	-6.5299268E+000	0
6.019399847937166E+001	8.6706877E-003	-6.4763346E+000	0
6.019519847934134E+001	8.6706877E-003	-6.4246540E+000	0
6.019639847931103E+001	8.6515965E-003	-6.3740563E+000	0
6.019759847928071E+001	8.6897789E-003	-6.3228855E+000	0
6.019879847925040E+001	8.6325053E-003	-6.2727342E+000	0
6.020019847921503E+001	8.7470515E-003	-6.2153182E+000	0
6.020159847917967E+001	8.7470515E-003	-6.1593676E+000	0
6.020299847914430E+001	8.5943239E-003	-6.1033535E+000	0
6.020439847910893E+001	8.6706877E-003	-6.0484867E+000	0
6.020579847907356E+001	8.7279603E-003	-5.9948301E+000	0
6.020719847903820E+001	8.6515965E-003	-5.9402819E+000	0
6.020859847900283E+001	8.6706877E-003	-5.8879004E+000	0
6.020999847896746E+001	8.6325053E-003	-5.8360920E+000	0
6.021139847893210E+001	8.6897789E-003	-5.7856851E+000	0
6.021279847889673E+001	8.6706877E-003	-5.7350240E+000	0
6.021419847886136E+001	8.7661427E-003	-5.6845541E+000	0
6.021579847882094E+001	8.6897789E-003	-5.6296234E+000	0
6.021739847878052E+001	8.7852338E-003	-5.5739279E+000	0
6.021899847874010E+001	8.7088700E-003	-5.5205908E+000	0
6.022059847869969E+001	8.6897789E-003	-5.4666157E+000	0
6.022219847865927E+001	8.7470515E-003	-5.4142337E+000	0
6.022379847861885E+001	8.6325053E-003	-5.3630629E+000	0
6.022539847857843E+001	8.7470515E-003	-5.3126564E+000	0
6.022719847853296E+001	8.6706877E-003	-5.2571521E+000	0
6.022899847848748E+001	8.7088700E-003	-5.2018390E+000	0
6.023079847844201E+001	8.5943239E-003	-5.1485653E+000	0
6.023259847839654E+001	8.6706877E-003	-5.0953546E+000	0
6.023439847835107E+001	8.6515965E-003	-5.0436106E+000	0
6.023619847830560E+001	8.8043250E-003	-4.9927583E+000	0
6.023819847825507E+001	8.6515965E-003	-4.9380822E+000	0
6.024019847820455E+001	8.6325053E-003	-4.8832793E+000	0
6.024219847815402E+001	8.7661427E-003	-4.8307695E+000	0
6.024419847810350E+001	8.5943239E-003	-4.7797260E+000	0
6.024619847805297E+001	8.6515965E-003	-4.7274718E+000	0
6.024839847799740E+001	8.7470515E-003	-4.6743255E+000	0
6.025059847794182E+001	8.6134141E-003	-4.6205420E+000	0
6.025279847788624E+001	8.7279603E-003	-4.5689883E+000	0
6.025499847783067E+001	8.6325053E-003	-4.5183272E+000	0
6.025739847777004E+001	8.7088700E-003	-4.4644799E+000	0
6.025979847770941E+001	8.7279603E-003	-4.4128628E+000	0
6.026219847764878E+001	8.7088700E-003	-4.3603535E+000	0
6.026479847758310E+001	8.6515965E-003	-4.3063784E+000	0
6.026739847751742E+001	8.6897789E-003	-4.2540603E+000	0
6.026999847745174E+001	8.6515965E-003	-4.2030807E+000	0
6.027259847738605E+001	8.6325053E-003	-4.1528654E+000	0
6.027539847731532E+001	8.5943239E-003	-4.1018853E+000	0
6.027819847724459E+001	8.7088700E-003	-4.0505872E+000	0
6.028119847716880E+001	8.7279603E-003	-3.9978228E+000	0
6.028419847709301E+001	8.7088700E-003	-3.9465241E+000	0
6.028739847701218E+001	8.6897789E-003	-3.8943336E+000	0
6.029059847693134E+001	8.7470515E-003	-3.8424618E+000	0
6.029399847684545E+001	8.7088700E-003	-3.7910361E+000	0
6.029739847675955E+001	8.6515965E-003	-3.7394190E+000	0
6.030099847666861E+001	8.6515965E-003	-3.6878018E+000	0
6.030459847657767E+001	8.6325053E-003	-3.6375232E+000	0
6.030839847648167E+001	8.6515965E-003	-3.5866706E+000	0
6.031219847638567E+001	8.6325053E-003	-3.5364552E+000	0
6.031619847628463E+001	8.6897789E-003	-3.4858577E+000	0
6.032039847617853E+001	8.5752327E-003	-3.4351966E+000	0
6.032479847606737E+001	8.6897789E-003	-3.3838980E+000	0
6.032919847595622E+001	8.6134141E-003	-3.3338742E+000	0
6.033379847584001E+001	8.7279603E-003	-3.2837226E+000	0
6.033879847571370E+001	8.8043250E-003	-3.2322969E+000	0
6.034379847558739E+001	8.6706877E-003	-3.1813810E+000	0
6.034899847545603E+001	8.7088700E-003	-3.1312294E+000	0
6.035459847531456E+001	8.7279603E-003	-3.0802498E+000	0
6.036019847517309E+001	8.7470515E-003	-3.0298433E+000	0
6.036619847502152E+001	8.7279603E-003	-2.9789910E+000	0
6.037239847486489E+001	8.5943239E-003	-2.9287758E+000	0
6.037879847470322E+001	8.6706877E-003	-2.8780508E+000	0
6.038559847453143E+001	8.6134141E-003	-2.8271985E+000	0
6.039259847435460E+001	8.7088700E-003	-2.7771108E+000	0
6.039999847416766E+001	8.7470515E-003	-2.7256212E+000	0
6.040779847397062E+001	8.6134141E-003	-2.6749601E+000	0
6.041579847376852E+001	8.6515965E-003	-2.6245537E+000	0
6.042419847355632E+001	8.6897789E-003	-2.5744023E+000	0
6.043299847333401E+001	8.7088700E-003	-2.5236773E+000	0
6.044219847310160E+001	8.6706877E-003	-2.4725702E+000	0
6.045199847285403E+001	8.6897789E-003	-2.4223552E+000	0
6.046219847259636E+001	8.7088700E-003	-2.3712478E+000	0
6.047279847232858E+001	8.6515965E-003	-2.3205228E+000	0
6.048399847204564E+001	8.7088700E-003	-2.2697980E+000	0
6.049579847174755E+001	8.7661427E-003	-2.2184358E+000	0
6.050839847142925E+001	8.6897789E-003	-2.1679020E+000	0
6.052119847110589E+001	8.6515965E-003	-2.1172409E+000	0
6.053499847075727E+001	8.6134141E-003	-2.0669618E+000	0
6.054919847039855E+001	8.7470515E-003	-2.0163004E+000	0
6.056459847000951E+001	8.6706877E-003	-1.9662127E+000	0
6.058059846960532E+001	8.7088700E-003	-1.9159340E+000	0
6.059759846917586E+001	8.7470515E-003	-1.8656551E+000	0
6.061579846871609E+001	8.6325053E-003	-1.8154401E+000	0
6.063499846823106E+001	8.7470515E-003	-1.7653524E+000	0
6.065559846771066E+001	8.6134141E-003	-1.7148185E+000	0
6.067799846714479E+001	8.6325053E-003	-1.6647947E+000	0
6.070199846653850E+001	8.6134141E-003	-1.6142608E+000	0
6.072739846589684E+001	8.6706877E-003	-1.5642370E+000	0
6.075519846519455E+001	8.7279603E-003	-1.5140854E+000	0
6.078559846442658E+001	8.7661427E-003	-1.4637431E+000	0
6.081859846359293E+001	8.7661427E-003	-1.4132093E+000	0
6.085479846267845E+001	8.6706877E-003	-1.3622931E+000	0
6.089399846168817E+001	8.7661427E-003	-1.3120780E+000	0
6.093799846057664E+001	8.6706877E-003	-1.2612256E+000	0
6.098659845934890E+001	8.6897789E-003	-1.2107556E+000	0
6.104059845798474E+001	8.7470515E-003	-1.1599033E+000	0
6.109959845649428E+001	8.7088700E-003	-1.1098793E+000	0
6.116679845479666E+001	8.7279603E-003	-1.0594729E+000	0
6.124219845289190E+001	8.6897789E-003	-1.0090029E+000	0
6.132879845070420E+001	8.6325053E-003	-9.5840544E-001	0
6.142759844820830E+001	8.7088700E-003	-9.0780789E-001	0
6.154119844533852E+001	8.6897789E-003	-8.5759276E-001	0
6.167379844198877E+001	8.6325053E-003	-8.0737764E-001	0
6.182939843805798E+001	8.6897789E-003	-7.5735366E-001	0
6.201919843326323E+001	8.6897789E-003	-7.0681989E-001	0
6.225059842741757E+001	8.6897789E-003	-6.5666854E-001	0
6.254059842009156E+001	8.6706877E-003	-6.0658091E-001	0
6.290699841083551E+001	8.6897789E-003	-5.5649316E-001	0
6.339679839846212E+001	8.7661427E-003	-5.0595939E-001	0
6.405779838176386E+001	8.7088700E-003	-4.5593542E-001	0
6.510359835534473E+001	8.6134141E-003	-4.0589970E-001	0
6.657559831815888E+001	8.7088700E-003	-3.5588425E-001	0
6.898959825717611E+001	8.7661427E-003	-3.0586886E-001	0
7.339779814581561E+001	8.6134141E-003	-2.5578344E-001	0
8.255719791442971E+001	8.6134141E-003	-2.0576800E-001	0
9.255719766180846E+001	8.6706877E-003	-1.7656054E-001	0
1.025571974091872E+002	8.7470515E-003	-1.5764248E-001	0
1.125571971565660E+002	8.7088700E-003	-1.4363691E-001	0
1.225571969039447E+002	8.6325053E-003	-1.3344929E-001	0
1.325571966513235E+002	8.6134141E-003	-1.2551427E-001	0
1.425571963987022E+002	8.8043250E-003	-1.1875646E-001	0
1.525571961460810E+002	8.6706877E-003	-1.1303587E-001	0
1.625571958934597E+002	8.5943239E-003	-1.0825068E-001	0
1.725571956408385E+002	8.7279603E-003	-1.0404455E-001	0
1.825571953882172E+002	8.7088700E-003	-1.0037929E-001	0
1.925571951355960E+002	8.7088700E-003	-9.7153105E-002	0
2.025571948829747E+002	8.6134141E-003	-9.4066903E-002	0
2.125571946303535E+002	8.6706877E-003	-9.1324329E-002	0
2.225571943777322E+002	8.6706877E-003	-8.8709027E-002	0
2.325571941251110E+002	8.7088700E-003	-8.6220972E-002	0
2.425571938724897E+002	8.7470515E-003	-8.4082916E-002	0
2.525571936198685E+002	8.7088700E-003	-8.2237564E-002	0
2.625571933672472E+002	8.7470515E-003	-8.0271304E-002	0
2.725571931146260E+002	8.6897789E-003	-7.8305051E-002	0
2.825571928620047E+002	8.6515965E-003	-7.6911494E-002	0
2.925571926093835E+002	8.6897789E-003	-7.5371578E-002	0
3.025571923567622E+002	8.6134141E-003	-7.3685311E-002	0
3.125571921041410E+002	8.7279603E-003	-7.2317198E-002	0
3.225571918515197E+002	8.7279603E-003	-7.0917279E-002	0
3.325571915988985E+002	8.6706877E-003	-6.9682799E-002	0
3.425571913462773E+002	8.5752327E-003	-6.8238333E-002	0
3.525571910936560E+002	8.6325053E-003	-6.7131124E-002	0
3.625571908410348E+002	8.7661427E-003	-6.6106640E-002	0
3.725571905884135E+002	8.7088700E-003	-6.4980336E-002	0
3.825571903357923E+002	8.8043250E-003	-6.3701309E-002	0
3.925571900831710E+002	8.7088700E-003	-6.2721364E-002	0
4.025571898305498E+002	8.6897789E-003	-6.1766874E-002	0
4.125571895779285E+002	8.6897789E-003	-6.0475130E-002	0
4.225571893253073E+002	8.6897789E-003	-5.9539724E-002	0
4.325571890726860E+002	8.7088700E-003	-5.8432516E-002	0
4.425571888200648E+002	8.5561415E-003	-5.7840727E-002	0
4.525571885674435E+002	8.6897789E-003	-5.7019863E-002	0
4.625571883148223E+002	8.5943239E-003	-5.6332625E-002	0
4.725571880622010E+002	8.8234162E-003	-5.4824531E-002	0
4.825571878095798E+002	8.7470515E-003	-5.6090821E-002	0
4.925571875569585E+002	8.7088700E-003	-5.5250868E-002	0
5.025571873043373E+002	8.6706877E-003	-5.4716352E-002	0
5.125571870517160E+002	8.6134141E-003	-5.3831857E-002	0
5.225571867990948E+002	8.5943239E-003	-5.3189166E-002	0
5.325571865464735E+002	8.7470515E-003	-5.2635558E-002	0
5.425571862938523E+002	8.6134141E-003	-5.2075591E-002	0
5.525571860412310E+002	8.6515965E-003	-5.1649246E-002	0
5.625571857886098E+002	8.6515965E-003	-5.0879288E-002	0
5.725571855359885E+002	8.6325053E-003	-5.0204780E-002	0
5.825571852833673E+002	8.6134141E-003	-4.9797531E-002	0
5.925571850307460E+002	8.6897789E-003	-4.9097568E-002	0
6.025571847781248E+002	8.5752327E-003	-4.8963942E-002	0
6.125571845255035E+002	8.6515965E-003	-4.8493061E-002	0
6.225571842728823E+002	8.6134141E-003	-4.7907636E-002	0
6.325571840202610E+002	8.6515965E-003	-4.7430389E-002	0
6.425571837676398E+002	8.5943239E-003	-4.7175858E-002	0
6.525571835150186E+002	8.6515965E-003	-4.6730425E-002	0
6.625571832623973E+002	8.7470515E-003	-4.6456806E-002	0
6.725571830097761E+002	8.6325053E-003	-4.6234090E-002	0
6.825571827571548E+002	8.7661427E-003	-4.5737755E-002	0
6.925571825045336E+002	8.6706877E-003	-4.5215964E-002	0
7.025571822519123E+002	8.5561415E-003	-4.5199305E-002	0
7.125571819992911E+002	8.7470515E-003	-4.4582143E-002	0
7.225571817466698E+002	8.7088700E-003	-4.4507701E-002	0
7.325571814940486E+002	8.6897789E-003	-4.4077594E-002	0
7.425571812414273E+002	8.7470515E-003	-4.3763284E-002	0
7.525571809888061E+002	8.7088700E-003	-4.3279093E-002	0
7.625571807361848E+002	8.7279603E-003	-4.2665109E-002	0
7.725571804835636E+002	8.7470515E-003	-4.2805720E-002	0
7.825571802309423E+002	8.5752327E-003	-4.2814631E-002	0
7.925571799783211E+002	8.7088700E-003	-4.2437967E-002	0
8.025571797256998E+002	8.6515965E-003	-4.2128745E-002	0
8.125571794730786E+002	8.6897789E-003	-4.1748267E-002	0
8.225571792204573E+002	8.7279603E-003	-4.1295253E-002	0
8.325571789678361E+002	8.7470515E-003	-4.0919863E-002	0
8.425571787152148E+002	8.7088700E-003	-4.0912867E-002	0
8.525571784625936E+002	8.6706877E-003	-4.0520933E-002	0
8.625571782099723E+002	8.7470515E-003	-4.0248618E-002	0
8.725571779573511E+002	8.7470515E-003	-3.9952759E-002	0
8.825571777047298E+002	8.6134141E-003	-3.9742794E-002	0
8.925571774521086E+002	8.7279603E-003	-3.9412580E-002	0
9.025571771994873E+002	8.6706877E-003	-3.9888497E-002	0
9.125571769468661E+002	8.5943239E-003	-3.9520103E-002	0
9.225571766942448E+002	8.6515965E-003	-3.9313957E-002	0
9.325571764416236E+002	8.7470515E-003	-3.8853947E-002	0
9.425571761890023E+002	8.7088700E-003	-3.8631897E-002	0
9.525571759363811E+002	8.5943239E-003	-3.8367212E-002	0
9.625571756837599E+002	8.6897789E-003	-3.8282596E-002	0
9.725571754311386E+002	8.7088700E-003	-3.7972100E-002	0
9.825571751785174E+002	8.8043250E-003	-3.7695967E-002	0
9.925571749258961E+002	8.5943239E-003	-3.7365753E-002	0
1.002557174673275E+003	8.6897789E-003	-3.7034895E-002	0
1.012557174420654E+003	8.7088700E-003	-3.6990996E-002	0
1.022557174168032E+003	8.6515965E-003	-3.7004359E-002	0
1.032557173915411E+003	8.7279603E-003	-3.6757495E-002	0
1.042557173662790E+003	8.6897789E-003	-3.6422823E-002	0
1.052557173410169E+003	8.6897789E-003	-3.6037892E-002	0
1.062557173157547E+003	8.6706877E-003	-3.5558157E-002	0
1.072557172904926E+003	8.6706877E-003	-3.6006711E-002	0
1.082557172652305E+003	8.6515965E-003	-3.5773207E-002	0
1.092557172399684E+003	8.5561415E-003	-3.5423268E-002	0
1.102557172147062E+003	8.6897789E-003	-3.5420086E-002	0
1.112557171894441E+003	8.6134141E-003	-3.5360280E-002	0
1.122557171641820E+003	8.7088700E-003	-3.5112143E-002	0
1.132557171389199E+003	8.6897789E-003	-3.4892634E-002	0
1.142557171136577E+003	8.6897789E-003	-3.4693487E-002	0
1.152557170883956E+003	8.7279603E-003	-3.4368996E-002	0
1.162557170631335E+003	8.7470515E-003	-3.4105588E-002	0
1.172557170378714E+003	8.6134141E-003	-3.3742923E-002	0
1.182557170126092E+003	8.7088700E-003	-3.3960521E-002	0
1.192557169873471E+003	8.5752327E-003	-3.3702839E-002	0
1.202557169620850E+003	8.7279603E-003	-3.3736560E-002	0
1.212557169368229E+003	8.5943239E-003	-3.3531688E-002	0
1.222557169115607E+003	8.6134141E-003	-3.3545047E-002	0
1.232557168862986E+003	8.5752327E-003	-3.3372622E-002	0
1.242557168610365E+003	8.7088700E-003	-3.3121940E-002	0
1.252557168357744E+003	8.5752327E-003	-3.3139754E-002	0
1.262557168105122E+003	8.7088700E-003	-3.2950148E-002	0
1.272557167852501E+003	8.7088700E-003	-3.2663200E-002	0
1.282557167599880E+003	8.6325053E-003	-3.2506045E-002	0
1.292557167347259E+003	8.6706877E-003	-3.2586850E-002	0
1.302557167094637E+003	8.5752327E-003	-3.2348890E-002	0
1.312557166842016E+003	8.7661427E-003	-3.2239456E-002	0
1.322557166589395E+003	8.7088700E-003	-3.2115385E-002	0
1.332557166336774E+003	8.6706877E-003	-3.1806167E-002	0
1.342557166084152E+003	8.6706877E-003	-3.1556122E-002	0
1.352557165831531E+003	8.7088700E-003	-3.1488676E-002	0
1.362557165578910E+003	8.5943239E-003	-3.1337246E-002	0
1.372557165326289E+003	8.7088700E-003	-3.1363968E-002	0
1.382557165073667E+003	8.7470515E-003	-3.1172456E-002	0
1.392557164821046E+003	8.6706877E-003	-3.0979039E-002	0
1.402557164568425E+003	8.7852338E-003	-3.0771619E-002	0
1.412557164315804E+003	8.7470515E-003	-3.0615738E-002	0
1.422557164063182E+003	8.6706877E-003	-3.0505026E-002	0
1.432557163810561E+003	8.6325053E-003	-3.0222531E-002	0
1.442557163557940E+003	8.7661427E-003	-3.0036110E-002	0
1.452557163305319E+003	8.6706877E-003	-2.9649902E-002	0
1.462557163052697E+003	8.7661427E-003	-2.9527107E-002	0
1.472557162800076E+003	8.6515965E-003	-2.9446939E-002	0
1.482557162547455E+003	8.6325053E-003	-2.9312052E-002	0
1.492557162294834E+003	8.6134141E-003	-2.9110361E-002	0
1.502557162042212E+003	8.7088700E-003	-2.8963387E-002	0
1.512557161789591E+003	8.6897789E-003	-2.8801141E-002	0
1.522557161536970E+003	8.5943239E-003	-2.8857132E-002	0
1.532557161284349E+003	8.7661427E-003	-2.8740061E-002	0
1.542557161031727E+003	8.6706877E-003	-2.8657347E-002	0
1.552557160779106E+003	8.7088700E-003	-2.8485557E-002	0
1.562557160526485E+003	8.7852338E-003	-2.8283231E-002	0
1.572557160273864E+003	8.7088700E-003	-2.8118441E-002	0
1.582557160021242E+003	8.6325053E-003	-2.7988644E-002	0
1.592557159768621E+003	8.7088700E-003	-2.7835943E-002	0
1.602557159516000E+003	8.7279603E-003	-2.8038910E-002	0
1.612557159263379E+003	8.7279603E-003	-2.7972739E-002	0
1.622557159010757E+003	8.7088700E-003	-2.8148979E-002	0
1.632557158758136E+003	8.6134141E-003	-2.7707422E-002	0
1.642557158505515E+003	8.7661427E-003	-2.6807120E-002	0
1.652557158252894E+003	8.6897789E-003	-2.6646152E-002	0
1.662557158000272E+003	8.7088700E-003	-2.6597794E-002	0
1.672557157747651E+003	8.6897789E-003	-2.7221959E-002	0
1.682557157495030E+003	8.7470515E-003	-2.6964914E-002	0
1.692557157242409E+003	8.6897789E-003	-2.6707232E-002	0
1.702557156989787E+003	8.5943239E-003	-2.6507447E-002	0
1.712557156737166E+003	8.6897789E-003	-2.6942644E-002	0
1.722557156484545E+003	8.5752327E-003	-2.7756412E-002	0
1.732557156231924E+003	8.7088700E-003	-2.7648885E-002	0
1.742557155979302E+003	8.7088700E-003	-2.7960014E-002	0
1.752557155726681E+003	8.7088700E-003	-2.7812405E-002	0
1.762557155474060E+003	8.7852338E-003	-2.7585896E-002	0
1.772557155221439E+003	8.6897789E-003	-2.7250592E-002	0
1.782557154968817E+003	8.5943239E-003	-2.7217504E-002	0
1.792557154716196E+003	8.7088700E-003	-2.7055260E-002	0
1.802557154463575E+003	8.7279603E-003	-2.6966821E-002	0
1.812557154210954E+003	8.7279603E-003	-2.6856750E-002	0
1.822557153958332E+003	8.7279603E-003	-2.6987819E-002	0
1.832557153705711E+003	8.6897789E-003	-2.7020903E-002	0
1.842557153453090E+003	8.6134141E-003	-2.6825575E-002	0
1.852557153200469E+003	8.6325053E-003	-2.6735863E-002	0
1.862557152947848E+003	8.6706877E-003	-2.6676051E-002	0
1.872557152695226E+003	8.7088700E-003	-2.6506172E-002	0
1.882557152442605E+003	8.7088700E-003	-2.6286030E-002	0
1.892557152189984E+003	8.6325053E-003	-2.6160052E-002	0
1.902557151937363E+003	8.7088700E-003	-2.6140328E-002	0
1.912557151684741E+003	8.7470515E-003	-2.5871193E-002	0
1.922557151432120E+003	8.5943239E-003	-2.5865465E-002	0
1.932557151179499E+003	8.6897789E-003	-2.5643412E-002	0
1.942557150926878E+003	8.7088700E-003	-2.5581064E-002	0
1.952557150674256E+003	8.7088700E-003	-2.5513617E-002	0
1.962557150421635E+003	8.6897789E-003	-2.5311287E-002	0
1.972557150169014E+003	8.5752327E-003	-2.5198035E-002	0
1.982557149916393E+003	8.6897789E-003	-2.5315743E-002	0
1.992557149663771E+003	8.6706877E-003	-2.5133776E-002	0
2.002557149411150E+003	8.6897789E-003	-2.4944171E-002	0
2.012557149158529E+003	8.7088700E-003	-2.4397630E-002	0
2.022557148905908E+003	8.6897789E-003	-2.4692850E-002	0
2.032557148653286E+003	8.6706877E-003	-2.4531879E-002	0
2.042557148400665E+003	8.7661427E-003	-2.4379177E-002	0
2.052557148148044E+003	8.7661427E-003	-2.4176214E-002	0
2.062557147895423E+003	8.5943239E-003	-2.4166670E-002	0
2.072557147642801E+003	8.6897789E-003	-2.3988517E-002	0
2.082557147390180E+003	8.6706877E-003	-2.3923619E-002	0
2.092557147137559E+003	8.6515965E-003	-2.4020331E-002	0
2.102557146884938E+003	8.6706877E-003	-2.3947798E-002	0
2.112557146632316E+003	8.6706877E-003	-2.3728928E-002	0
2.122557146379695E+003	8.7279603E-003	-2.3759468E-002	0
2.132557146127074E+003	8.7088700E-003	-2.3807185E-002	0
2.142557145874453E+003	8.6515965E-003	-2.3963070E-002	0
2.152557145621831E+003	8.7088700E-003	-2.3518328E-002	0
2.162557145369210E+003	8.6706877E-003	-2.3490332E-002	0
2.172557145116589E+003	8.5752327E-003	-2.3398075E-002	0
2.182557144863968E+003	8.7279603E-003	-2.3282915E-002	0
2.192557144611346E+003	8.7852338E-003	-2.3601677E-002	0
2.202557144358725E+003	8.6897789E-003	-2.3530416E-002	0
2.212557144106104E+003	8.6325053E-003	-2.3447704E-002	0
2.222557143853483E+003	8.7279603E-003	-2.3436250E-002	0
2.232557143600861E+003	8.6325053E-003	-2.3357991E-002	0
2.242557143348240E+003	8.6325053E-003	-2.3233922E-002	0
2.252557143095619E+003	8.7470515E-003	-2.3121940E-002	0
2.262557142842998E+003	8.6325053E-003	-2.3071041E-002	0
2.272557142590376E+003	8.6706877E-003	-2.2804450E-002	0
2.282557142337755E+003	8.7470515E-003	-2.2789180E-002	0
2.292557142085134E+003	8.6897789E-003	-2.2639662E-002	0
2.302557141832513E+003	8.7088700E-003	-2.2542315E-002	0
2.312557141579891E+003	8.5943239E-003	-2.2474235E-002	0
2.322557141327270E+003	8.6515965E-003	-2.2624390E-002	0
2.332557141074649E+003	8.6706877E-003	-2.2480596E-002	0
2.342557140822028E+003	8.6325053E-003	-2.2397883E-002	0
2.352557140569406E+003	8.7470515E-003	-2.2361618E-002	0
2.362557140316785E+003	8.7279603E-003	-2.2301812E-002	0
2.372557140064164E+003	8.6515965E-003	-2.2246456E-002	0
2.382557139811543E+003	8.6515965E-003	-2.2207644E-002	0
2.392557139558921E+003	8.6134141E-003	-2.2141475E-002	0
2.402557139306300E+003	8.6325053E-003	-2.2021223E-002	0
2.412557139053679E+003	8.8615976E-003	-2.2014858E-002	0
2.422557138801058E+003	8.7661427E-003	-2.1874247E-002	0
2.432557138548436E+003	8.6706877E-003	-2.1767993E-002	0
2.442557138295815E+003	8.6325053E-003	-2.1773720E-002	0
2.452557138043194E+003	8.7088700E-003	-2.1670012E-002	0
2.462557137790573E+003	8.6325053E-003	-2.1551030E-002	0
2.472557137537951E+003	8.7088700E-003	-2.1394512E-002	0
2.482557137285330E+003	8.6134141E-003	-2.1331523E-002	0
2.492557137032709E+003	8.6134141E-003	-2.1304164E-002	0
2.502557136780088E+003	8.6897789E-003	-2.1223998E-002	0
2.512557136527466E+003	8.6897789E-003	-2.1115834E-002	0
2.522557136274845E+003	8.6325053E-003	-2.1022940E-002	0
2.532557136022224E+003	8.6515965E-003	-2.1012759E-002	0
2.542557135769603E+003	8.5943239E-003	-2.1114560E-002	0
2.552557135516981E+003	8.6897789E-003	-2.0941500E-002	0
2.562557135264360E+003	8.6706877E-003	-2.0503120E-002	0
2.572557135011739E+003	8.6706877E-003	-2.0379052E-002	0
2.582557134759118E+003	8.6515965E-003	-2.0286795E-002	0
2.592557134506496E+003	8.6897789E-003	-2.0286795E-002	0
2.602557134253875E+003	8.6134141E-003	-2.0207899E-002	0
2.612557134001254E+003	8.6515965E-003	-2.0123277E-002	0
2.622557133748633E+003	8.7279603E-003	-2.0002389E-002	0
2.632557133496011E+003	8.7470515E-003	-1.9934945E-002	0
2.642557133243390E+003	8.6897789E-003	-1.9867502E-002	0
2.652557132990769E+003	8.7279603E-003	-1.9822327E-002	0
2.662557132738148E+003	8.6515965E-003	-1.9805787E-002	0
2.669939132551663E+003	8.6897789E-003	-1.9550012E-002	0
2.669939332551658E+003	8.7088700E-003	-1.9613001E-002	0