time/s	Ewe/V	I/mA	error	
7.271054458085331E+003	-3.5295911E-002	-1.9599630E-001	0
7.271054858085321E+003	-3.7015375E-002	-1.9600141E-001	0
7.271055258085325E+003	-3.8390946E-002	-1.9599886E-001	0
7.271055658085315E+003	-3.9823830E-002	-1.9600077E-001	0
7.271056058085320E+003	-4.0912826E-002	-1.9599696E-001	0
7.271056458085310E+003	-4.2116448E-002	-1.9600204E-001	0
7.271056858085300E+003	-4.3148126E-002	-1.9600141E-001	0
7.271057458085299E+003	-4.4523697E-002	-1.9599439E-001	0
7.271058058085298E+003	-4.6052106E-002	-1.9599630E-001	0
7.271058658085283E+003	-4.7274835E-002	-1.9600268E-001	0
7.271059258085268E+003	-4.8612196E-002	-1.9599630E-001	0
7.271059858085267E+003	-4.9758505E-002	-1.9599760E-001	0
7.271060458085267E+003	-5.0904814E-002	-1.9599886E-001	0
7.271061058085252E+003	-5.2070227E-002	-1.9600013E-001	0
7.271061658085251E+003	-5.3178325E-002	-1.9599821E-001	0
7.271062258085236E+003	-5.4190900E-002	-1.9600013E-001	0
7.271062858085235E+003	-5.5356313E-002	-1.9600649E-001	0
7.271063658085215E+003	-5.6617253E-002	-1.9600077E-001	0
7.271064258085215E+003	-5.7706244E-002	-1.9599821E-001	0
7.271065058085209E+003	-5.8967184E-002	-1.9599760E-001	0
7.271065858085203E+003	-6.0209021E-002	-1.9600394E-001	0
7.271066658085183E+003	-6.1450854E-002	-1.9599950E-001	0
7.271067458085177E+003	-6.2635370E-002	-1.9600394E-001	0
7.271068258085172E+003	-6.3781679E-002	-1.9599630E-001	0
7.271069058085151E+003	-6.5023512E-002	-1.9600204E-001	0
7.271069858085146E+003	-6.6036083E-002	-1.9600013E-001	0
7.271070658085140E+003	-6.7163289E-002	-1.9599950E-001	0
7.271071458085120E+003	-6.8290494E-002	-1.9599696E-001	0
7.271072258085114E+003	-6.9322169E-002	-1.9599696E-001	0
7.271073058085109E+003	-7.0411161E-002	-1.9599821E-001	0
7.271073858085103E+003	-7.1461946E-002	-1.9599314E-001	0
7.271074658085097E+003	-7.2474517E-002	-1.9600333E-001	0
7.271075658085072E+003	-7.3678143E-002	-1.9599505E-001	0
7.271076658085061E+003	-7.4919976E-002	-1.9600204E-001	0
7.271077658085051E+003	-7.6180920E-002	-1.9600013E-001	0
7.271078658085040E+003	-7.7346332E-002	-1.9600715E-001	0
7.271079458085034E+003	-7.8358904E-002	-1.9600204E-001	0
7.271080458085024E+003	-7.9447895E-002	-1.9600077E-001	0
7.271081458085013E+003	-8.0575101E-002	-1.9600268E-001	0
7.271082458085002E+003	-8.1683196E-002	-1.9599058E-001	0
7.271083458084977E+003	-8.2982346E-002	-1.9600204E-001	0
7.271084658084961E+003	-8.4147766E-002	-1.9599696E-001	0
7.271085658084950E+003	-8.5160337E-002	-1.9599886E-001	0
7.271086858084949E+003	-8.6402170E-002	-1.9600268E-001	0
7.271087858084924E+003	-8.7529376E-002	-1.9600013E-001	0
7.271088858084913E+003	-8.8561051E-002	-1.9600268E-001	0
7.271090058084897E+003	-8.9821994E-002	-1.9600141E-001	0
7.271091258084896E+003	-9.1025613E-002	-1.9599377E-001	0
7.271092458084866E+003	-9.2095502E-002	-1.9600394E-001	0
7.271093458084855E+003	-9.3127184E-002	-1.9599630E-001	0
7.271094658084854E+003	-9.4216175E-002	-1.9600013E-001	0
7.271095658084843E+003	-9.5247850E-002	-1.9600013E-001	0
7.271096858084813E+003	-9.6375056E-002	-1.9600141E-001	0
7.271098058084812E+003	-9.7483151E-002	-1.9599886E-001	0
7.271099258084796E+003	-9.8495729E-002	-1.9599950E-001	0
7.271100458084780E+003	-9.9603824E-002	-1.9599696E-001	0
7.271101658084764E+003	-1.0071192E-001	-1.9600458E-001	0
7.271102858084749E+003	-1.0172450E-001	-1.9599950E-001	0
7.271104058084733E+003	-1.0277528E-001	-1.9600458E-001	0
7.271105258084717E+003	-1.0382606E-001	-1.9600715E-001	0
7.271106658084696E+003	-1.0497237E-001	-1.9600013E-001	0
7.271107858084695E+003	-1.0602316E-001	-1.9600077E-001	0
7.271109258084674E+003	-1.0713125E-001	-1.9600204E-001	0
7.271110458084659E+003	-1.0814382E-001	-1.9600204E-001	0
7.271111858084638E+003	-1.0921371E-001	-1.9600458E-001	0
7.271113258084617E+003	-1.1037912E-001	-1.9599821E-001	0
7.271114858084606E+003	-1.1164007E-001	-1.9599886E-001	0
7.271116258084585E+003	-1.1265264E-001	-1.9599377E-001	0
7.271117858084559E+003	-1.1379895E-001	-1.9599950E-001	0
7.271119258084553E+003	-1.1483062E-001	-1.9600458E-001	0
7.271120658084532E+003	-1.1586230E-001	-1.9600077E-001	0
7.271122058084511E+003	-1.1689398E-001	-1.9599696E-001	0
7.271123458084505E+003	-1.1794476E-001	-1.9599186E-001	0
7.271125058084479E+003	-1.1895733E-001	-1.9599696E-001	0
7.271126458084458E+003	-1.1998902E-001	-1.9599950E-001	0
7.271128258084442E+003	-1.2126905E-001	-1.9599377E-001	0
7.271129658084421E+003	-1.2228163E-001	-1.9600524E-001	0
7.271131458084405E+003	-1.2344705E-001	-1.9599314E-001	0
7.271133258084374E+003	-1.2451693E-001	-1.9600141E-001	0
7.271134858084362E+003	-1.2558682E-001	-1.9599696E-001	0
7.271136458084336E+003	-1.2661849E-001	-1.9599950E-001	0
7.271138058084325E+003	-1.2765017E-001	-1.9599821E-001	0
7.271139858084294E+003	-1.2877737E-001	-1.9600333E-001	0
7.271141858084273E+003	-1.3003832E-001	-1.9599950E-001	0
7.271143858084251E+003	-1.3108909E-001	-1.9599760E-001	0
7.271145458084240E+003	-1.3210167E-001	-1.9599696E-001	0
7.271147058084214E+003	-1.3311425E-001	-1.9600077E-001	0
7.271149058084193E+003	-1.3414592E-001	-1.9599886E-001	0
7.271150858084162E+003	-1.3529223E-001	-1.9599886E-001	0
7.271153058084135E+003	-1.3632391E-001	-1.9599630E-001	0
7.271154858084119E+003	-1.3748932E-001	-1.9600458E-001	0
7.271156858084098E+003	-1.3854010E-001	-1.9600333E-001	0
7.271158858084062E+003	-1.3962910E-001	-1.9600333E-001	0
7.271160858084040E+003	-1.4066078E-001	-1.9599569E-001	0
7.271162858084019E+003	-1.4169246E-001	-1.9600458E-001	0
7.271165058083992E+003	-1.4285786E-001	-1.9599950E-001	0
7.271167458083961E+003	-1.4396596E-001	-1.9600333E-001	0
7.271169858083944E+003	-1.4509317E-001	-1.9600204E-001	0
7.271171858083908E+003	-1.4612484E-001	-1.9600077E-001	0
7.271174258083891E+003	-1.4719473E-001	-1.9599630E-001	0
7.271176458083850E+003	-1.4820731E-001	-1.9599760E-001	0
7.271178658083838E+003	-1.4923899E-001	-1.9600077E-001	0
7.271180858083797E+003	-1.5028977E-001	-1.9600141E-001	0
7.271183458083775E+003	-1.5134054E-001	-1.9600524E-001	0
7.271185858083743E+003	-1.5237223E-001	-1.9600715E-001	0
7.271188258083712E+003	-1.5349942E-001	-1.9600649E-001	0
7.271191058083685E+003	-1.5464574E-001	-1.9599950E-001	0
7.271193458083653E+003	-1.5571563E-001	-1.9599821E-001	0
7.271196458083607E+003	-1.5686193E-001	-1.9599886E-001	0
7.271199258083579E+003	-1.5804645E-001	-1.9600458E-001	0
7.271202258083547E+003	-1.5909724E-001	-1.9600077E-001	0
7.271204658083516E+003	-1.6012892E-001	-1.9600394E-001	0
7.271207658083484E+003	-1.6125612E-001	-1.9600458E-001	0
7.271211058083441E+003	-1.6242154E-001	-1.9600013E-001	0
7.271214058083395E+003	-1.6343410E-001	-1.9600077E-001	0
7.271216858083368E+003	-1.6450399E-001	-1.9600715E-001	0
7.271219858083336E+003	-1.6553567E-001	-1.9599377E-001	0
7.271223258083293E+003	-1.6658646E-001	-1.9599950E-001	0
7.271226458083256E+003	-1.6759902E-001	-1.9600077E-001	0
7.271229458083209E+003	-1.6864981E-001	-1.9600013E-001	0
7.271232858083182E+003	-1.6977702E-001	-1.9600204E-001	0
7.271236658083129E+003	-1.7082779E-001	-1.9600458E-001	0
7.271240058083087E+003	-1.7195500E-001	-1.9599950E-001	0
7.271243658083040E+003	-1.7296757E-001	-1.9599821E-001	0
7.271247258082993E+003	-1.7399925E-001	-1.9599760E-001	0
7.271250858082960E+003	-1.7503093E-001	-1.9600333E-001	0
7.271254658082908E+003	-1.7606261E-001	-1.9600394E-001	0
7.271258658082865E+003	-1.7709428E-001	-1.9599950E-001	0
7.271262458082812E+003	-1.7816417E-001	-1.9599950E-001	0
7.271266658082764E+003	-1.7917675E-001	-1.9600013E-001	0
7.271270658082722E+003	-1.8026574E-001	-1.9600268E-001	0
7.271274858082674E+003	-1.8131652E-001	-1.9599821E-001	0
7.271279658082611E+003	-1.8244372E-001	-1.9600077E-001	0
7.271284658082543E+003	-1.8353271E-001	-1.9600394E-001	0
7.271289658082489E+003	-1.8464081E-001	-1.9599696E-001	0
7.271294458082426E+003	-1.8569160E-001	-1.9600141E-001	0
7.271299058082368E+003	-1.8670417E-001	-1.9600458E-001	0
7.271304458082304E+003	-1.8775496E-001	-1.9600141E-001	0
7.271309858082241E+003	-1.8882485E-001	-1.9600524E-001	0
7.271314858082187E+003	-1.8983741E-001	-1.9600333E-001	0
7.271320858082108E+003	-1.9098373E-001	-1.9599569E-001	0
7.271327058082039E+003	-1.9203451E-001	-1.9600141E-001	0
7.271333258081955E+003	-1.9314261E-001	-1.9599696E-001	0
7.271339658081881E+003	-1.9415517E-001	-1.9600333E-001	0
7.271346658081791E+003	-1.9516775E-001	-1.9599950E-001	0
7.271353458081721E+003	-1.9619943E-001	-1.9599696E-001	0
7.271359458081643E+003	-1.9725022E-001	-1.9599760E-001	0
7.271368058081542E+003	-1.9830099E-001	-1.9600077E-001	0
7.271376058081441E+003	-1.9931357E-001	-1.9600077E-001	0
7.271384858081336E+003	-2.0032614E-001	-1.9600458E-001	0
7.271394258081215E+003	-2.0133871E-001	-1.9599950E-001	0
7.271405058081087E+003	-2.0238949E-001	-1.9600268E-001	0
7.271418458080923E+003	-2.0347849E-001	-1.9599630E-001	0
7.271434458080737E+003	-2.0449106E-001	-1.9600013E-001	0
7.271465858080352E+003	-2.0550363E-001	-1.9599886E-001	0
7.271501258079923E+003	-2.0449106E-001	-1.9599760E-001	0
7.271516058079753E+003	-2.0347849E-001	-1.9600840E-001	0
7.271527458079610E+003	-2.0246592E-001	-1.9599950E-001	0
7.271537058079499E+003	-2.0143424E-001	-1.9600649E-001	0
7.271544858079404E+003	-2.0038345E-001	-1.9600458E-001	0
7.271552058079309E+003	-1.9937088E-001	-1.9600333E-001	0
7.271558858079225E+003	-1.9828188E-001	-1.9600268E-001	0
7.271565458079145E+003	-1.9719289E-001	-1.9600268E-001	0
7.271571858079071E+003	-1.9604659E-001	-1.9599505E-001	0
7.271577458079002E+003	-1.9499581E-001	-1.9600204E-001	0
7.271583058078933E+003	-1.9386861E-001	-1.9599821E-001	0
7.271588258078875E+003	-1.9279872E-001	-1.9600013E-001	0
7.271593658078811E+003	-1.9176704E-001	-1.9600458E-001	0
7.271598058078758E+003	-1.9067805E-001	-1.9600013E-001	0
7.271603258078685E+003	-1.8966547E-001	-1.9600333E-001	0
7.271607258078642E+003	-1.8865290E-001	-1.9599821E-001	0
7.271611858078584E+003	-1.8762122E-001	-1.9600077E-001	0
7.271616258078531E+003	-1.8660864E-001	-1.9599886E-001	0
7.271621058078468E+003	-1.8553875E-001	-1.9600458E-001	0
7.271625058078425E+003	-1.8450709E-001	-1.9600141E-001	0
7.271629458078372E+003	-1.8336077E-001	-1.9600268E-001	0
7.271633858078319E+003	-1.8219537E-001	-1.9600715E-001	0
7.271638658078256E+003	-1.8116368E-001	-1.9599886E-001	0
7.271643258078198E+003	-1.7994095E-001	-1.9600333E-001	0
7.271647658078145E+003	-1.7890927E-001	-1.9600077E-001	0
7.271652058078093E+003	-1.7787759E-001	-1.9600204E-001	0
7.271656058078050E+003	-1.7678860E-001	-1.9600524E-001	0
7.271660858077987E+003	-1.7566140E-001	-1.9599950E-001	0
7.271665058077939E+003	-1.7462972E-001	-1.9599886E-001	0
7.271669058077896E+003	-1.7359804E-001	-1.9600333E-001	0
7.271673658077838E+003	-1.7258547E-001	-1.9599630E-001	0
7.271677658077795E+003	-1.7153469E-001	-1.9600268E-001	0
7.271681858077733E+003	-1.7050301E-001	-1.9600077E-001	0
7.271686458077689E+003	-1.6945222E-001	-1.9600333E-001	0
7.271691258077626E+003	-1.6843966E-001	-1.9599950E-001	0
7.271695458077578E+003	-1.6736977E-001	-1.9600394E-001	0
7.271700058077520E+003	-1.6629988E-001	-1.9600013E-001	0
7.271704858077457E+003	-1.6519178E-001	-1.9600268E-001	0
7.271709858077404E+003	-1.6417921E-001	-1.9600077E-001	0
7.271714258077351E+003	-1.6316664E-001	-1.9600204E-001	0
7.271719258077283E+003	-1.6211586E-001	-1.9599760E-001	0
7.271724658077219E+003	-1.6104597E-001	-1.9599696E-001	0
7.271729258077161E+003	-1.6003339E-001	-1.9600333E-001	0
7.271734458077102E+003	-1.5900171E-001	-1.9600268E-001	0
7.271739058077044E+003	-1.5797004E-001	-1.9600204E-001	0
7.271744658076976E+003	-1.5690015E-001	-1.9600013E-001	0
7.271750258076907E+003	-1.5584937E-001	-1.9600204E-001	0
7.271755458076848E+003	-1.5477948E-001	-1.9600204E-001	0
7.271761258076775E+003	-1.5370959E-001	-1.9600077E-001	0
7.271767458076705E+003	-1.5269701E-001	-1.9600141E-001	0
7.271773058076637E+003	-1.5168445E-001	-1.9600333E-001	0
7.271779058076558E+003	-1.5059546E-001	-1.9600649E-001	0
7.271785058076493E+003	-1.4954467E-001	-1.9600394E-001	0
7.271791658076414E+003	-1.4853209E-001	-1.9600333E-001	0
7.271798258076335E+003	-1.4748131E-001	-1.9599821E-001	0
7.271805058076250E+003	-1.4644964E-001	-1.9600333E-001	0
7.271811658076171E+003	-1.4539886E-001	-1.9599886E-001	0
7.271819258076081E+003	-1.4432897E-001	-1.9599439E-001	0
7.271826458075986E+003	-1.4327818E-001	-1.9599696E-001	0
7.271834658075881E+003	-1.4226560E-001	-1.9600077E-001	0
7.271841458075811E+003	-1.4125304E-001	-1.9599886E-001	0
7.271850858075690E+003	-1.4012583E-001	-1.9599886E-001	0
7.271859458075589E+003	-1.3909416E-001	-1.9599950E-001	0
7.271868658075473E+003	-1.3804337E-001	-1.9600013E-001	0
7.271878058075366E+003	-1.3703080E-001	-1.9599696E-001	0
7.271888458075235E+003	-1.3596091E-001	-1.9600333E-001	0
7.271897858075128E+003	-1.3491012E-001	-1.9600141E-001	0
7.271908458074991E+003	-1.3389756E-001	-1.9600585E-001	0
7.271920258074853E+003	-1.3284677E-001	-1.9599886E-001	0
7.271932458074705E+003	-1.3179599E-001	-1.9600077E-001	0
7.271945058074547E+003	-1.3076431E-001	-1.9600268E-001	0
7.271958658074378E+003	-1.2969442E-001	-1.9600458E-001	0
7.271973258074213E+003	-1.2866275E-001	-1.9600204E-001	0
7.271989458074007E+003	-1.2761196E-001	-1.9600013E-001	0
7.272005858073811E+003	-1.2659939E-001	-1.9599950E-001	0
7.272024058073599E+003	-1.2552950E-001	-1.9599505E-001	0
7.272041858073382E+003	-1.2449782E-001	-1.9599439E-001	0
7.272062058073134E+003	-1.2348525E-001	-1.9599186E-001	0
7.272085858072853E+003	-1.2245358E-001	-1.9600333E-001	0
7.272109858072552E+003	-1.2130727E-001	-1.9600013E-001	0
7.272138458072208E+003	-1.2029470E-001	-1.9600968E-001	0
7.272170058071832E+003	-1.1924391E-001	-1.9599950E-001	0
7.272204458071414E+003	-1.1821224E-001	-1.9600204E-001	0
7.272244858070917E+003	-1.1714235E-001	-1.9600524E-001	0
7.272290058070372E+003	-1.1611067E-001	-1.9600268E-001	0
7.272336458069811E+003	-1.1507899E-001	-1.9599950E-001	0
7.272396258069086E+003	-1.1406642E-001	-1.9599950E-001	0
7.272457658068350E+003	-1.1301564E-001	-1.9600268E-001	0
7.272541858067329E+003	-1.1200307E-001	-1.9599886E-001	0
7.272638858066144E+003	-1.1093318E-001	-1.9599886E-001	0
7.272758858064699E+003	-1.0990150E-001	-1.9600077E-001	0
7.272905858062921E+003	-1.0888892E-001	-1.9599760E-001	0
7.273123458060290E+003	-1.0783814E-001	-1.9599696E-001	0
7.273393258057011E+003	-1.0682557E-001	-1.9599886E-001	0
7.273786658052253E+003	-1.0581300E-001	-1.9599569E-001	0
7.274291858046141E+003	-1.0480043E-001	-1.9600268E-001	0
7.275114858036177E+003	-1.0378785E-001	-1.9600333E-001	0
7.276121658023985E+003	-1.0277528E-001	-1.9600394E-001	0
7.277302858009687E+003	-1.0174360E-001	-1.9599505E-001	0
7.278524657994887E+003	-1.0073103E-001	-1.9599505E-001	0
7.279813457979282E+003	-9.9699348E-002	-1.9600204E-001	0
7.281292857961380E+003	-9.8686777E-002	-1.9600458E-001	0
7.282637457945093E+003	-9.7635992E-002	-1.9600905E-001	0
7.284186257926340E+003	-9.6623421E-002	-1.9599760E-001	0
7.285704057907962E+003	-9.5610850E-002	-1.9600777E-001	0
7.287169057890234E+003	-9.4598278E-002	-1.9600141E-001	0
7.288901257869264E+003	-9.3585707E-002	-1.9600204E-001	0
7.290628257848352E+003	-9.2554025E-002	-1.9600204E-001	0
7.292401857826873E+003	-9.1541454E-002	-1.9599821E-001	0
7.294443457802161E+003	-9.0528883E-002	-1.9599950E-001	0
7.296502857777232E+003	-8.9497201E-002	-1.9600013E-001	0
7.298812657749251E+003	-8.8484630E-002	-1.9600777E-001	0
7.301013457722613E+003	-8.7472059E-002	-1.9599569E-001	0
7.303918257687445E+003	-8.6421274E-002	-1.9600268E-001	0
7.306713257653610E+003	-8.5408702E-002	-1.9600715E-001	0
7.309771457616574E+003	-8.4357917E-002	-1.9600524E-001	0
7.313107657576184E+003	-8.3326243E-002	-1.9600394E-001	0
7.317192657526728E+003	-8.2313672E-002	-1.9600268E-001	0
7.321220657477970E+003	-8.1281990E-002	-1.9600268E-001	0
7.325945457420763E+003	-8.0250315E-002	-1.9599886E-001	0
7.330745257362651E+003	-7.9237744E-002	-1.9599505E-001	0
7.335745257302115E+003	-7.8473538E-002	-1.9600394E-001	0
7.340745257241579E+003	-7.7785753E-002	-1.9600268E-001	0
7.345745257181043E+003	-7.7174388E-002	-1.9599950E-001	0
7.350745257120507E+003	-7.6429285E-002	-1.9599821E-001	0
7.355745257059971E+003	-7.5875238E-002	-1.9600394E-001	0
7.360745256999435E+003	-7.5550444E-002	-1.9600141E-001	0
7.365745256938899E+003	-7.5034611E-002	-1.9600777E-001	0
7.370745256878363E+003	-7.4767135E-002	-1.9600394E-001	0
7.375745256817827E+003	-7.4423246E-002	-1.9600394E-001	0
7.380745256757291E+003	-7.4213088E-002	-1.9600077E-001	0
7.385745256696755E+003	-7.3888302E-002	-1.9600141E-001	0
7.390745256636219E+003	-7.3792778E-002	-1.9600394E-001	0
7.395745256575683E+003	-7.3639937E-002	-1.9599630E-001	0
7.400745256515147E+003	-7.3448882E-002	-1.9599760E-001	0
7.405745256454611E+003	-7.3372461E-002	-1.9600394E-001	0
7.410745256394075E+003	-7.3219620E-002	-1.9599439E-001	0
7.415745256333539E+003	-7.3009461E-002	-1.9599696E-001	0
7.420745256273003E+003	-7.3028572E-002	-1.9600204E-001	0
7.425745256212467E+003	-7.2971255E-002	-1.9599760E-001	0
7.430745256151931E+003	-7.2913937E-002	-1.9599760E-001	0
7.435745256091395E+003	-7.2837517E-002	-1.9600585E-001	0
7.440745256030859E+003	-7.2837517E-002	-1.9599569E-001	0
7.445745255970323E+003	-7.2703779E-002	-1.9600333E-001	0
7.450745255909787E+003	-7.2741993E-002	-1.9600204E-001	0
7.455745255849251E+003	-7.2684675E-002	-1.9600394E-001	0
7.460745255788715E+003	-7.2608255E-002	-1.9599950E-001	0
7.465745255728179E+003	-7.2608255E-002	-1.9600077E-001	0
7.470745255667644E+003	-7.2665572E-002	-1.9599630E-001	0
7.475745255607108E+003	-7.2665572E-002	-1.9600394E-001	0
7.480745255546572E+003	-7.2608255E-002	-1.9599950E-001	0
7.485745255486036E+003	-7.2550938E-002	-1.9600141E-001	0
7.490745255425500E+003	-7.2512731E-002	-1.9599886E-001	0
7.495745255364964E+003	-7.2570048E-002	-1.9599696E-001	0
7.500745255304428E+003	-7.2570048E-002	-1.9600077E-001	0
7.505745255243892E+003	-7.2608255E-002	-1.9599950E-001	0
7.510745255183356E+003	-7.2684675E-002	-1.9599821E-001	0
7.515745255122820E+003	-7.2436310E-002	-1.9600394E-001	0
7.520745255062284E+003	-7.2570048E-002	-1.9600585E-001	0
7.525745255001748E+003	-7.2589152E-002	-1.9600077E-001	0
7.530745254941212E+003	-7.2570048E-002	-1.9600715E-001	0
7.535745254880676E+003	-7.2665572E-002	-1.9600077E-001	0
7.540745254820140E+003	-7.2589152E-002	-1.9600141E-001	0
7.545745254759604E+003	-7.2665572E-002	-1.9600013E-001	0
7.550745254699068E+003	-7.2550938E-002	-1.9600013E-001	0
7.555745254638532E+003	-7.2703779E-002	-1.9600268E-001	0
7.560745254577996E+003	-7.2665572E-002	-1.9600013E-001	0
7.565745254517460E+003	-7.2722889E-002	-1.9600268E-001	0
7.570745254456924E+003	-7.2703779E-002	-1.9600268E-001	0
7.575745254396388E+003	-7.2818413E-002	-1.9600268E-001	0
7.580745254335852E+003	-7.2799310E-002	-1.9599569E-001	0
7.585745254275316E+003	-7.2684675E-002	-1.9599696E-001	0
7.590745254214780E+003	-7.2722889E-002	-1.9600013E-001	0
7.595745254154244E+003	-7.2894834E-002	-1.9599696E-001	0
7.600745254093708E+003	-7.2952151E-002	-1.9600394E-001	0
7.605745254033172E+003	-7.2761096E-002	-1.9600649E-001	0
7.610745253972636E+003	-7.2741993E-002	-1.9600458E-001	0
7.615745253912100E+003	-7.2856620E-002	-1.9600077E-001	0
7.620745253851564E+003	-7.2665572E-002	-1.9599821E-001	0
7.625745253791029E+003	-7.2818413E-002	-1.9600585E-001	0
7.630745253730493E+003	-7.2933041E-002	-1.9600013E-001	0
7.635745253669957E+003	-7.2761096E-002	-1.9600458E-001	0
7.640745253609421E+003	-7.2933041E-002	-1.9600394E-001	0
7.645745253548885E+003	-7.2894834E-002	-1.9600268E-001	0
7.650745253488349E+003	-7.2971255E-002	-1.9600840E-001	0
7.655745253427813E+003	-7.2837517E-002	-1.9600777E-001	0
7.660745253367277E+003	-7.2933041E-002	-1.9600013E-001	0
7.665745253306741E+003	-7.2971255E-002	-1.9600333E-001	0
7.670745253246205E+003	-7.3066778E-002	-1.9600204E-001	0
7.675745253185669E+003	-7.3066778E-002	-1.9600204E-001	0
7.680745253125133E+003	-7.2971255E-002	-1.9600585E-001	0
7.685745253064597E+003	-7.2971255E-002	-1.9600204E-001	0
7.690745253004061E+003	-7.2971255E-002	-1.9599950E-001	0
7.695745252943525E+003	-7.2971255E-002	-1.9599439E-001	0
7.700745252882989E+003	-7.2971255E-002	-1.9600013E-001	0
7.705745252822453E+003	-7.2971255E-002	-1.9600524E-001	0
7.710745252761917E+003	-7.3104993E-002	-1.9600268E-001	0
7.715745252701381E+003	-7.3047675E-002	-1.9600458E-001	0
7.720745252640845E+003	-7.3066778E-002	-1.9600524E-001	0
7.725745252580309E+003	-7.3104993E-002	-1.9600268E-001	0
7.730745252519773E+003	-7.3162302E-002	-1.9600141E-001	0
7.735745252459237E+003	-7.3066778E-002	-1.9600141E-001	0
7.740745252398701E+003	-7.3124096E-002	-1.9600333E-001	0
7.745745252338165E+003	-7.3066778E-002	-1.9600905E-001	0
7.750745252277629E+003	-7.3066778E-002	-1.9600333E-001	0
7.755745252217093E+003	-7.2933041E-002	-1.9600141E-001	0
7.760745252156557E+003	-7.3066778E-002	-1.9600649E-001	0
7.765745252096021E+003	-7.3200516E-002	-1.9599886E-001	0
7.770745252035485E+003	-7.3143199E-002	-1.9600524E-001	0
7.775745251974950E+003	-7.3009461E-002	-1.9600013E-001	0
7.780745251914414E+003	-7.3162302E-002	-1.9600458E-001	0
7.785745251853878E+003	-7.3047675E-002	-1.9600013E-001	0
7.790745251793342E+003	-7.3066778E-002	-1.9600141E-001	0
7.795745251732806E+003	-7.3124096E-002	-1.9600524E-001	0
7.800745251672270E+003	-7.3124096E-002	-1.9600968E-001	0
7.805745251611734E+003	-7.3124096E-002	-1.9600077E-001	0
7.810745251551198E+003	-7.3009461E-002	-1.9600204E-001	0
7.815745251490662E+003	-7.3066778E-002	-1.9600141E-001	0
7.820745251430126E+003	-7.2933041E-002	-1.9600013E-001	0
7.825745251369590E+003	-7.3009461E-002	-1.9600077E-001	0
7.830745251309054E+003	-7.3028572E-002	-1.9600268E-001	0
7.835745251248518E+003	-7.3028572E-002	-1.9600649E-001	0
7.840745251187982E+003	-7.3028572E-002	-1.9600268E-001	0
7.845745251127446E+003	-7.2971255E-002	-1.9600077E-001	0
7.850745251066910E+003	-7.3009461E-002	-1.9600141E-001	0
7.855745251006374E+003	-7.2913937E-002	-1.9600077E-001	0
7.860745250945838E+003	-7.3028572E-002	-1.9600715E-001	0
7.865745250885302E+003	-7.2894834E-002	-1.9600968E-001	0
7.870745250824766E+003	-7.2837517E-002	-1.9600524E-001	0
7.875745250764230E+003	-7.2952151E-002	-1.9600524E-001	0
7.880745250703694E+003	-7.2856620E-002	-1.9600333E-001	0
7.885745250643158E+003	-7.2990358E-002	-1.9600204E-001	0
7.890745250582622E+003	-7.2913937E-002	-1.9600077E-001	0
7.895745250522086E+003	-7.2799310E-002	-1.9599630E-001	0
7.900745250461550E+003	-7.2741993E-002	-1.9600268E-001	0
7.905745250401014E+003	-7.2818413E-002	-1.9600077E-001	0
7.910745250340478E+003	-7.2761096E-002	-1.9600777E-001	0
7.915745250279942E+003	-7.2799310E-002	-1.9600013E-001	0
7.920745250219406E+003	-7.2837517E-002	-1.9600077E-001	0
7.925745250158870E+003	-7.2741993E-002	-1.9599821E-001	0
7.930745250098335E+003	-7.2684675E-002	-1.9599950E-001	0
7.935745250037799E+003	-7.2722889E-002	-1.9599886E-001	0
7.940745249977263E+003	-7.2761096E-002	-1.9600141E-001	0
7.945745249916727E+003	-7.2570048E-002	-1.9600204E-001	0
7.950745249856191E+003	-7.2741993E-002	-1.9599760E-001	0
7.955745249795655E+003	-7.2761096E-002	-1.9600840E-001	0
7.960745249735119E+003	-7.2417207E-002	-1.9600585E-001	0
7.965745249674583E+003	-7.2646469E-002	-1.9600077E-001	0
7.970745249614047E+003	-7.2589152E-002	-1.9600013E-001	0
7.975745249553511E+003	-7.2646469E-002	-1.9600524E-001	0
7.980745249492975E+003	-7.2550938E-002	-1.9599821E-001	0
7.985745249432439E+003	-7.2627358E-002	-1.9600333E-001	0
7.990745249371903E+003	-7.2378993E-002	-1.9600077E-001	0
7.995745249311367E+003	-7.2627358E-002	-1.9600394E-001	0
8.000745249250831E+003	-7.2455414E-002	-1.9600394E-001	0
8.005745249190295E+003	-7.2378993E-002	-1.9600204E-001	0
8.010745249129759E+003	-7.2608255E-002	-1.9600268E-001	0
8.015745249069223E+003	-7.2417207E-002	-1.9600524E-001	0
8.020745249008687E+003	-7.2359890E-002	-1.9600458E-001	0
8.025745248948151E+003	-7.2359890E-002	-1.9600524E-001	0
8.030745248887615E+003	-7.2417207E-002	-1.9600394E-001	0
8.035745248827079E+003	-7.2321676E-002	-1.9600013E-001	0
8.040745248766543E+003	-7.2359890E-002	-1.9600585E-001	0
8.045745248706007E+003	-7.2264366E-002	-1.9600458E-001	0
8.050745248645471E+003	-7.2302572E-002	-1.9600458E-001	0
8.055745248584935E+003	-7.2264366E-002	-1.9600013E-001	0
8.060745248524399E+003	-7.2130628E-002	-1.9599760E-001	0
8.065745248463863E+003	-7.2130628E-002	-1.9600268E-001	0
8.070745248403327E+003	-7.2168835E-002	-1.9599950E-001	0
8.075745248342791E+003	-7.2111525E-002	-1.9600268E-001	0
8.080745248282255E+003	-7.2283469E-002	-1.9600141E-001	0
8.085745248221720E+003	-7.1977787E-002	-1.9600649E-001	0
8.090745248161184E+003	-7.2035104E-002	-1.9599630E-001	0
8.095745248100648E+003	-7.2015993E-002	-1.9600268E-001	0
8.100745248040112E+003	-7.2073311E-002	-1.9599696E-001	0
8.105745247979576E+003	-7.1996890E-002	-1.9600458E-001	0
8.110745247919040E+003	-7.2092414E-002	-1.9600394E-001	0
8.115745247858504E+003	-7.1863152E-002	-1.9600204E-001	0
8.120745247797968E+003	-7.1977787E-002	-1.9600204E-001	0
8.125745247737432E+003	-7.1882263E-002	-1.9600394E-001	0
8.130745247676896E+003	-7.1748525E-002	-1.9600394E-001	0
8.135745247616360E+003	-7.1939573E-002	-1.9599821E-001	0
8.140745247555824E+003	-7.1824946E-002	-1.9600268E-001	0
8.145745247495288E+003	-7.1786731E-002	-1.9600204E-001	0
8.150745247434752E+003	-7.1672104E-002	-1.9600585E-001	0
8.155745247374216E+003	-7.1767628E-002	-1.9600458E-001	0
8.160745247313680E+003	-7.1748525E-002	-1.9599821E-001	0
8.165745247253144E+003	-7.1691208E-002	-1.9600840E-001	0
8.170745247192608E+003	-7.1767628E-002	-1.9600394E-001	0
8.175745247132072E+003	-7.1595684E-002	-1.9600013E-001	0
8.180745247071536E+003	-7.1729422E-002	-1.9600585E-001	0
8.185745247011000E+003	-7.1481049E-002	-1.9600013E-001	0
8.190745246950464E+003	-7.1576580E-002	-1.9599821E-001	0
8.195745246889914E+003	-7.1576580E-002	-1.9599821E-001	0
8.200745246829378E+003	-7.1653001E-002	-1.9600394E-001	0
8.205745246768842E+003	-7.1672104E-002	-1.9599630E-001	0
8.210745246708306E+003	-7.1461946E-002	-1.9600458E-001	0
8.215745246647770E+003	-7.1576580E-002	-1.9600013E-001	0
8.220745246587234E+003	-7.1442842E-002	-1.9600141E-001	0
8.225745246526698E+003	-7.1385525E-002	-1.9600013E-001	0
8.230745246466162E+003	-7.1423739E-002	-1.9599886E-001	0
8.235745246405626E+003	-7.1519263E-002	-1.9600141E-001	0
8.240745246345090E+003	-7.1328208E-002	-1.9600141E-001	0
8.245745246284554E+003	-7.1519263E-002	-1.9599821E-001	0
8.250745246224018E+003	-7.1309105E-002	-1.9600204E-001	0
8.255745246163482E+003	-7.1385525E-002	-1.9600333E-001	0
8.260745246102946E+003	-7.1404628E-002	-1.9600524E-001	0
8.265745246042410E+003	-7.1290001E-002	-1.9600204E-001	0
8.270745245981874E+003	-7.1194477E-002	-1.9600204E-001	0
8.275745245921338E+003	-7.1404628E-002	-1.9599950E-001	0
8.280745245860802E+003	-7.1137160E-002	-1.9600204E-001	0
8.285745245800266E+003	-7.1232684E-002	-1.9600649E-001	0
8.290745245739730E+003	-7.1194477E-002	-1.9599950E-001	0
8.295745245679194E+003	-7.1290001E-002	-1.9599821E-001	0
8.300745245618658E+003	-7.1251787E-002	-1.9600077E-001	0
8.305745245558122E+003	-7.1118057E-002	-1.9600268E-001	0
8.310745245497586E+003	-7.1118057E-002	-1.9599821E-001	0
8.315745245437050E+003	-7.1175367E-002	-1.9599696E-001	0
8.320745245376515E+003	-7.1194477E-002	-1.9600013E-001	0
8.325745245315979E+003	-7.1003422E-002	-1.9600458E-001	0
8.330745245255443E+003	-7.1137160E-002	-1.9600840E-001	0
8.335745245194907E+003	-7.1079843E-002	-1.9600268E-001	0
8.340745245134371E+003	-7.1041636E-002	-1.9600458E-001	0
8.345745245073835E+003	-7.1079843E-002	-1.9600458E-001	0
8.350745245013299E+003	-7.1137160E-002	-1.9600268E-001	0
8.355745244952763E+003	-7.0774160E-002	-1.9600585E-001	0
8.360745244892227E+003	-7.0907898E-002	-1.9600524E-001	0
8.365745244831691E+003	-7.0907898E-002	-1.9600268E-001	0
8.370745244771155E+003	-7.1003422E-002	-1.9600077E-001	0
8.375745244710619E+003	-7.0888795E-002	-1.9599760E-001	0
8.380745244650083E+003	-7.0869684E-002	-1.9599760E-001	0
8.385745244589547E+003	-7.1003422E-002	-1.9600204E-001	0
8.390745244529011E+003	-7.0735954E-002	-1.9599821E-001	0
8.395745244468475E+003	-7.0907898E-002	-1.9600268E-001	0
8.400745244407939E+003	-7.0716843E-002	-1.9600840E-001	0
8.405745244347403E+003	-7.0888795E-002	-1.9600394E-001	0
8.410745244286867E+003	-7.0793264E-002	-1.9600394E-001	0
8.415745244226331E+003	-7.0697740E-002	-1.9600394E-001	0
8.420745244165795E+003	-7.0831478E-002	-1.9600204E-001	0
8.425745244105259E+003	-7.0716843E-002	-1.9599821E-001	0
8.430745244044723E+003	-7.0755057E-002	-1.9600524E-001	0
8.435745243984187E+003	-7.0831478E-002	-1.9600013E-001	0
8.440745243923651E+003	-7.0735954E-002	-1.9599886E-001	0
8.445745243863115E+003	-7.0659533E-002	-1.9600013E-001	0
8.450745243802579E+003	-7.0602216E-002	-1.9599886E-001	0
8.455745243742043E+003	-7.0697740E-002	-1.9600013E-001	0
8.460745243681507E+003	-7.0602216E-002	-1.9600204E-001	0
8.465745243620971E+003	-7.0621319E-002	-1.9600458E-001	0
8.470745243560435E+003	-7.0602216E-002	-1.9600204E-001	0
8.475745243499900E+003	-7.0678636E-002	-1.9600715E-001	0
8.480745243439364E+003	-7.0602216E-002	-1.9600204E-001	0
8.485745243378828E+003	-7.0487581E-002	-1.9600394E-001	0
8.490745243318292E+003	-7.0640422E-002	-1.9600268E-001	0
8.495745243257756E+003	-7.0640422E-002	-1.9600268E-001	0
8.500745243197220E+003	-7.0468478E-002	-1.9599821E-001	0
8.505745243136684E+003	-7.0430271E-002	-1.9599696E-001	0
8.510745243076148E+003	-7.0487581E-002	-1.9599630E-001	0
8.515745243015612E+003	-7.0487581E-002	-1.9600204E-001	0
8.520745242955076E+003	-7.0544899E-002	-1.9600968E-001	0
8.525745242894540E+003	-7.0468478E-002	-1.9600394E-001	0
8.530745242834004E+003	-7.0487581E-002	-1.9600715E-001	0
8.535745242773468E+003	-7.0372954E-002	-1.9599886E-001	0
8.540745242712932E+003	-7.0392057E-002	-1.9600394E-001	0
8.545745242652396E+003	-7.0449375E-002	-1.9600394E-001	0
8.550745242591860E+003	-7.0334740E-002	-1.9599821E-001	0
8.555745242531324E+003	-7.0353851E-002	-1.9599760E-001	0
8.560745242470788E+003	-7.0334740E-002	-1.9600268E-001	0
8.565745242410252E+003	-7.0201010E-002	-1.9599630E-001	0
8.570745242349716E+003	-7.0334740E-002	-1.9600585E-001	0
8.575745242289180E+003	-7.0392057E-002	-1.9600524E-001	0
8.580745242228644E+003	-7.0392057E-002	-1.9600649E-001	0
8.585745242168108E+003	-7.0372954E-002	-1.9599630E-001	0
8.590745242107572E+003	-7.0315637E-002	-1.9600077E-001	0
8.595745242047036E+003	-7.0162795E-002	-1.9600268E-001	0
8.600745241986500E+003	-7.0220113E-002	-1.9600077E-001	0
8.605745241925964E+003	-7.0334740E-002	-1.9599760E-001	0
8.610745241865428E+003	-7.0334740E-002	-1.9600204E-001	0
8.615745241804892E+003	-7.0220113E-002	-1.9600333E-001	0
8.620745241744356E+003	-7.0353851E-002	-1.9600013E-001	0
8.625745241683821E+003	-7.0162795E-002	-1.9599569E-001	0
8.630745241623285E+003	-7.0181906E-002	-1.9600077E-001	0
8.635745241562749E+003	-7.0124589E-002	-1.9599569E-001	0
8.640745241502213E+003	-7.0239216E-002	-1.9600204E-001	0
8.645745241441677E+003	-7.0201010E-002	-1.9600077E-001	0
8.650745241381141E+003	-7.0124589E-002	-1.9599886E-001	0
8.655745241320605E+003	-7.0105486E-002	-1.9600268E-001	0
8.660745241260069E+003	-7.0181906E-002	-1.9600204E-001	0
8.665745241199533E+003	-7.0201010E-002	-1.9600715E-001	0
8.670745241138997E+003	-7.0181906E-002	-1.9600013E-001	0
8.675745241078461E+003	-7.0009954E-002	-1.9600585E-001	0
8.680745241017925E+003	-7.0067272E-002	-1.9600333E-001	0
8.685745240957389E+003	-7.0105486E-002	-1.9600585E-001	0
8.690745240896853E+003	-7.0086375E-002	-1.9599821E-001	0
8.695745240836317E+003	-7.0105486E-002	-1.9600394E-001	0
8.700745240775781E+003	-7.0029065E-002	-1.9600268E-001	0
8.705745240715245E+003	-7.0181906E-002	-1.9600585E-001	0
8.710745240654709E+003	-7.0143692E-002	-1.9600777E-001	0
8.715745240594173E+003	-7.0009954E-002	-1.9599950E-001	0
8.720745240533637E+003	-7.0067272E-002	-1.9600458E-001	0
8.725745240473101E+003	-6.9857113E-002	-1.9599505E-001	0
8.730745240412565E+003	-7.0048168E-002	-1.9599821E-001	0
8.735745240352029E+003	-6.9933534E-002	-1.9600141E-001	0
8.740745240291493E+003	-7.0009954E-002	-1.9599886E-001	0
8.745745240230957E+003	-6.9971748E-002	-1.9599950E-001	0
8.750745240170421E+003	-7.0048168E-002	-1.9600458E-001	0
8.755745240109885E+003	-6.9857113E-002	-1.9600458E-001	0
8.760745240049349E+003	-7.0048168E-002	-1.9599821E-001	0
8.765745239988813E+003	-6.9895327E-002	-1.9600394E-001	0
8.770745239928277E+003	-7.0029065E-002	-1.9600394E-001	0
8.775745239867741E+003	-6.9971748E-002	-1.9599950E-001	0
8.780745239807206E+003	-6.9933534E-002	-1.9600777E-001	0
8.785745239746670E+003	-6.9876224E-002	-1.9600141E-001	0
8.790745239686134E+003	-6.9876224E-002	-1.9599505E-001	0
8.795745239625598E+003	-6.9971748E-002	-1.9600649E-001	0
8.800745239565062E+003	-6.9780692E-002	-1.9600585E-001	0
8.805745239504526E+003	-6.9952644E-002	-1.9600077E-001	0
8.810745239443990E+003	-6.9780692E-002	-1.9600649E-001	0
8.815745239383454E+003	-6.9895327E-002	-1.9599760E-001	0
8.820745239322918E+003	-6.9914430E-002	-1.9599950E-001	0
8.825745239262382E+003	-6.9818906E-002	-1.9600077E-001	0
8.830745239201846E+003	-6.9876224E-002	-1.9600394E-001	0
8.835745239141310E+003	-6.9742486E-002	-1.9600585E-001	0
8.840745239080774E+003	-6.9799803E-002	-1.9599821E-001	0
8.845745239020238E+003	-6.9723383E-002	-1.9600204E-001	0
8.850745238959702E+003	-6.9723383E-002	-1.9600394E-001	0
8.855745238899166E+003	-6.9780692E-002	-1.9599886E-001	0
8.860745238838630E+003	-6.9723383E-002	-1.9600204E-001	0
8.865745238778094E+003	-6.9704272E-002	-1.9600141E-001	0
8.870745238717558E+003	-6.9838010E-002	-1.9600141E-001	0
8.875745238657022E+003	-6.9799803E-002	-1.9600715E-001	0
8.880745238596486E+003	-6.9685169E-002	-1.9599630E-001	0
8.885745238535950E+003	-6.9685169E-002	-1.9600141E-001	0
8.890745238475414E+003	-6.9627851E-002	-1.9600394E-001	0
8.895745238414878E+003	-6.9704272E-002	-1.9599886E-001	0
8.900745238354342E+003	-6.9761589E-002	-1.9600141E-001	0
8.905745238293806E+003	-6.9551431E-002	-1.9600585E-001	0
8.910745238233270E+003	-6.9761589E-002	-1.9600077E-001	0
8.915745238172734E+003	-6.9646962E-002	-1.9600141E-001	0
8.920745238112198E+003	-6.9627851E-002	-1.9599696E-001	0
8.925745238051662E+003	-6.9570541E-002	-1.9599886E-001	0
8.930745237991126E+003	-6.9685169E-002	-1.9599886E-001	0
8.935745237930591E+003	-6.9608748E-002	-1.9599950E-001	0
8.940745237870055E+003	-6.9551431E-002	-1.9599886E-001	0
8.945745237809519E+003	-6.9570541E-002	-1.9599950E-001	0
8.950745237748983E+003	-6.9627851E-002	-1.9600458E-001	0
8.955745237688447E+003	-6.9627851E-002	-1.9599696E-001	0
8.960745237627911E+003	-6.9551431E-002	-1.9600013E-001	0
8.965745237567375E+003	-6.9646962E-002	-1.9600649E-001	0
8.970745237506839E+003	-6.9608748E-002	-1.9600077E-001	0
8.975745237446303E+003	-6.9589645E-002	-1.9600394E-001	0
8.980745237385767E+003	-6.9532327E-002	-1.9599696E-001	0
8.985745237325231E+003	-6.9494121E-002	-1.9600141E-001	0
8.990745237264695E+003	-6.9570541E-002	-1.9600204E-001	0
8.995745237204159E+003	-6.9494121E-002	-1.9600458E-001	0
9.000745237143623E+003	-6.9494121E-002	-1.9600204E-001	0
9.005745237083087E+003	-6.9627851E-002	-1.9600204E-001	0
9.010745237022551E+003	-6.9494121E-002	-1.9600394E-001	0
9.015745236962015E+003	-6.9475010E-002	-1.9599950E-001	0
9.020745236901479E+003	-6.9475010E-002	-1.9599696E-001	0
9.025745236840943E+003	-6.9360383E-002	-1.9600394E-001	0
9.030745236780407E+003	-6.9417700E-002	-1.9600268E-001	0
9.035745236719871E+003	-6.9475010E-002	-1.9600141E-001	0
9.040745236659335E+003	-6.9455907E-002	-1.9600649E-001	0
9.045745236598799E+003	-6.9455907E-002	-1.9600268E-001	0
9.050745236538263E+003	-6.9494121E-002	-1.9600458E-001	0
9.055745236477727E+003	-6.9398589E-002	-1.9600268E-001	0
9.060745236417191E+003	-6.9379486E-002	-1.9599760E-001	0
9.065745236356655E+003	-6.9322169E-002	-1.9600268E-001	0
9.070745236296119E+003	-6.9341280E-002	-1.9600013E-001	0
9.071053436292394E+003	-6.9475010E-002	-1.9599377E-001	0