time/s	Ewe/V	I/mA	error	
1.491111356558566E+004	-5.4572888E-002	-1.9598587E-001	0
1.491111376558567E+004	-5.5986155E-002	-1.9598013E-001	0
1.491111416558565E+004	-5.7991471E-002	-1.9598459E-001	0
1.491111456558565E+004	-5.9633918E-002	-1.9597694E-001	0
1.491111496558564E+004	-6.1104484E-002	-1.9598332E-001	0
1.491111536558563E+004	-6.2517747E-002	-1.9598140E-001	0
1.491111576558562E+004	-6.3835531E-002	-1.9597885E-001	0
1.491111616558563E+004	-6.5057814E-002	-1.9597504E-001	0
1.491111656558563E+004	-6.6318296E-002	-1.9598204E-001	0
1.491111696558561E+004	-6.7464195E-002	-1.9598523E-001	0
1.491111736558560E+004	-6.8629183E-002	-1.9597822E-001	0
1.491111776558560E+004	-6.9641389E-002	-1.9598140E-001	0
1.491111816558559E+004	-7.0672698E-002	-1.9597758E-001	0
1.491111876558559E+004	-7.2143257E-002	-1.9598523E-001	0
1.491111916558558E+004	-7.3250957E-002	-1.9598013E-001	0
1.491111976558558E+004	-7.4606933E-002	-1.9598077E-001	0
1.491112036558558E+004	-7.5982004E-002	-1.9597758E-001	0
1.491112096558556E+004	-7.7299781E-002	-1.9597949E-001	0
1.491112156558558E+004	-7.8636661E-002	-1.9597058E-001	0
1.491112216558555E+004	-7.9858944E-002	-1.9597949E-001	0
1.491112276558555E+004	-8.1214920E-002	-1.9598523E-001	0
1.491112336558555E+004	-8.2475401E-002	-1.9597758E-001	0
1.491112396558553E+004	-8.3621301E-002	-1.9598077E-001	0
1.491112456558552E+004	-8.4919974E-002	-1.9597822E-001	0
1.491112536558550E+004	-8.6371444E-002	-1.9598077E-001	0
1.491112596558550E+004	-8.7517336E-002	-1.9597632E-001	0
1.491112656558550E+004	-8.8586837E-002	-1.9598587E-001	0
1.491112716558548E+004	-8.9675441E-002	-1.9598459E-001	0
1.491112776558548E+004	-9.0783134E-002	-1.9597758E-001	0
1.491112856558547E+004	-9.2139110E-002	-1.9598013E-001	0
1.491112916558547E+004	-9.3285002E-002	-1.9598077E-001	0
1.491112996558545E+004	-9.4621882E-002	-1.9597885E-001	0
1.491113056558545E+004	-9.5672287E-002	-1.9598204E-001	0
1.491113136558543E+004	-9.6932769E-002	-1.9598204E-001	0
1.491113196558543E+004	-9.8059565E-002	-1.9597377E-001	0
1.491113276558543E+004	-9.9205457E-002	-1.9597949E-001	0
1.491113356558541E+004	-1.0052323E-001	-1.9598140E-001	0
1.491113436558540E+004	-1.0172642E-001	-1.9598268E-001	0
1.491113516558538E+004	-1.0292961E-001	-1.9597822E-001	0
1.491113596558537E+004	-1.0413280E-001	-1.9598459E-001	0
1.491113656558537E+004	-1.0514501E-001	-1.9598395E-001	0
1.491113736558537E+004	-1.0631000E-001	-1.9597822E-001	0
1.491113816558538E+004	-1.0751319E-001	-1.9597822E-001	0
1.491113896558536E+004	-1.0860179E-001	-1.9598332E-001	0
1.491113976558534E+004	-1.0976678E-001	-1.9597377E-001	0
1.491114056558533E+004	-1.1083628E-001	-1.9598459E-001	0
1.491114136558531E+004	-1.1190578E-001	-1.9598013E-001	0
1.491114216558530E+004	-1.1297528E-001	-1.9598013E-001	0
1.491114296558528E+004	-1.1402569E-001	-1.9597377E-001	0
1.491114376558528E+004	-1.1522888E-001	-1.9597694E-001	0
1.491114476558527E+004	-1.1641297E-001	-1.9597632E-001	0
1.491114556558526E+004	-1.1742517E-001	-1.9598395E-001	0
1.491114636558526E+004	-1.1849467E-001	-1.9597885E-001	0
1.491114716558525E+004	-1.1952598E-001	-1.9598013E-001	0
1.491114816558524E+004	-1.2071007E-001	-1.9598140E-001	0
1.491114916558523E+004	-1.2200875E-001	-1.9597949E-001	0
1.491115016558520E+004	-1.2313554E-001	-1.9598013E-001	0
1.491115116558519E+004	-1.2424324E-001	-1.9597949E-001	0
1.491115196558519E+004	-1.2527454E-001	-1.9598077E-001	0
1.491115296558518E+004	-1.2642044E-001	-1.9598395E-001	0
1.491115396558517E+004	-1.2758543E-001	-1.9598013E-001	0
1.491115496558516E+004	-1.2871222E-001	-1.9598714E-001	0
1.491115596558515E+004	-1.2978172E-001	-1.9598395E-001	0
1.491115696558513E+004	-1.3087033E-001	-1.9597504E-001	0
1.491115796558511E+004	-1.3203532E-001	-1.9598587E-001	0
1.491115916558509E+004	-1.3325760E-001	-1.9597568E-001	0
1.491116016558508E+004	-1.3434620E-001	-1.9597949E-001	0
1.491116136558507E+004	-1.3570218E-001	-1.9597632E-001	0
1.491116256558508E+004	-1.3673349E-001	-1.9598204E-001	0
1.491116356558507E+004	-1.3782208E-001	-1.9597949E-001	0
1.491116476558504E+004	-1.3894887E-001	-1.9598140E-001	0
1.491116576558503E+004	-1.3998018E-001	-1.9597949E-001	0
1.491116696558500E+004	-1.4108787E-001	-1.9598332E-001	0
1.491116816558498E+004	-1.4215738E-001	-1.9597758E-001	0
1.491116916558497E+004	-1.4326508E-001	-1.9598332E-001	0
1.491117056558497E+004	-1.4448737E-001	-1.9597885E-001	0
1.491117176558495E+004	-1.4563327E-001	-1.9597822E-001	0
1.491117296558493E+004	-1.4666456E-001	-1.9597822E-001	0
1.491117396558492E+004	-1.4773406E-001	-1.9597885E-001	0
1.491117536558490E+004	-1.4876537E-001	-1.9597758E-001	0
1.491117656558489E+004	-1.4994946E-001	-1.9597885E-001	0
1.491117796558487E+004	-1.5109536E-001	-1.9598204E-001	0
1.491117936558486E+004	-1.5214576E-001	-1.9597822E-001	0
1.491118056558484E+004	-1.5319616E-001	-1.9598268E-001	0
1.491118196558484E+004	-1.5426566E-001	-1.9598140E-001	0
1.491118316558481E+004	-1.5527786E-001	-1.9598140E-001	0
1.491118456558479E+004	-1.5634736E-001	-1.9598268E-001	0
1.491118596558477E+004	-1.5749326E-001	-1.9597822E-001	0
1.491118736558476E+004	-1.5850547E-001	-1.9597885E-001	0
1.491118896558473E+004	-1.5963227E-001	-1.9597313E-001	0
1.491119036558473E+004	-1.6089275E-001	-1.9598140E-001	0
1.491119196558470E+004	-1.6194315E-001	-1.9597504E-001	0
1.491119356558468E+004	-1.6305085E-001	-1.9597885E-001	0
1.491119496558467E+004	-1.6413945E-001	-1.9598587E-001	0
1.491119656558466E+004	-1.6518985E-001	-1.9597949E-001	0
1.491119796558464E+004	-1.6622116E-001	-1.9597822E-001	0
1.491119956558463E+004	-1.6732885E-001	-1.9598013E-001	0
1.491120136558458E+004	-1.6855113E-001	-1.9598140E-001	0
1.491120316558456E+004	-1.6967793E-001	-1.9597885E-001	0
1.491120496558455E+004	-1.7080472E-001	-1.9597822E-001	0
1.491120656558452E+004	-1.7181693E-001	-1.9598332E-001	0
1.491120836558449E+004	-1.7298193E-001	-1.9598140E-001	0
1.491121016558447E+004	-1.7408963E-001	-1.9597949E-001	0
1.491121216558447E+004	-1.7523552E-001	-1.9598204E-001	0
1.491121416558445E+004	-1.7636232E-001	-1.9598459E-001	0
1.491121596558442E+004	-1.7747001E-001	-1.9598077E-001	0
1.491121776558438E+004	-1.7848222E-001	-1.9598013E-001	0
1.491121976558436E+004	-1.7953262E-001	-1.9598268E-001	0
1.491122156558435E+004	-1.8054482E-001	-1.9598395E-001	0
1.491122356558433E+004	-1.8157613E-001	-1.9598268E-001	0
1.491122536558429E+004	-1.8258834E-001	-1.9597822E-001	0
1.491122756558427E+004	-1.8373424E-001	-1.9598077E-001	0
1.491122956558425E+004	-1.8478464E-001	-1.9598077E-001	0
1.491123196558421E+004	-1.8589233E-001	-1.9598332E-001	0
1.491123416558419E+004	-1.8692364E-001	-1.9597949E-001	0
1.491123636558416E+004	-1.8793584E-001	-1.9598140E-001	0
1.491123836558414E+004	-1.8906264E-001	-1.9597632E-001	0
1.491124076558411E+004	-1.9009395E-001	-1.9598395E-001	0
1.491124296558408E+004	-1.9110616E-001	-1.9598332E-001	0
1.491124556558407E+004	-1.9230933E-001	-1.9598013E-001	0
1.491124816558402E+004	-1.9332156E-001	-1.9598013E-001	0
1.491125076558399E+004	-1.9437195E-001	-1.9597885E-001	0
1.491125336558395E+004	-1.9538416E-001	-1.9597949E-001	0
1.491125576558393E+004	-1.9649185E-001	-1.9597694E-001	0
1.491125836558390E+004	-1.9754227E-001	-1.9597568E-001	0
1.491126096558386E+004	-1.9855447E-001	-1.9597822E-001	0
1.491126356558384E+004	-1.9956668E-001	-1.9597885E-001	0
1.491126656558379E+004	-2.0069347E-001	-1.9598077E-001	0
1.491126956558376E+004	-2.0182027E-001	-1.9597822E-001	0
1.491127296558372E+004	-2.0288977E-001	-1.9598587E-001	0
1.491127596558369E+004	-2.0390198E-001	-1.9597822E-001	0
1.491127916558365E+004	-2.0506696E-001	-1.9598395E-001	0
1.491128256558362E+004	-2.0619376E-001	-1.9597822E-001	0
1.491128576558357E+004	-2.0720597E-001	-1.9597822E-001	0
1.491128896558353E+004	-2.0831366E-001	-1.9597632E-001	0
1.491129276558348E+004	-2.0942137E-001	-1.9598013E-001	0
1.491129696558343E+004	-2.1050996E-001	-1.9598459E-001	0
1.491130056558338E+004	-2.1154127E-001	-1.9598268E-001	0
1.491130396558336E+004	-2.1262987E-001	-1.9597632E-001	0
1.491130816558329E+004	-2.1364208E-001	-1.9598204E-001	0
1.491131196558324E+004	-2.1465428E-001	-1.9598204E-001	0
1.491131636558319E+004	-2.1576197E-001	-1.9598140E-001	0
1.491132096558315E+004	-2.1683148E-001	-1.9598077E-001	0
1.491132536558308E+004	-2.1793917E-001	-1.9598395E-001	0
1.491133076558303E+004	-2.1895137E-001	-1.9597632E-001	0
1.491133496558297E+004	-2.1996358E-001	-1.9598140E-001	0
1.491133996558291E+004	-2.2099489E-001	-1.9598395E-001	0
1.491134596558285E+004	-2.2206439E-001	-1.9598587E-001	0
1.491135216558276E+004	-2.2313389E-001	-1.9598714E-001	0
1.491135936558267E+004	-2.2420339E-001	-1.9597694E-001	0
1.491136676558258E+004	-2.2521560E-001	-1.9597758E-001	0
1.491137696558246E+004	-2.2622781E-001	-1.9597632E-001	0
1.491138996558232E+004	-2.2724001E-001	-1.9598268E-001	0
1.491143776558174E+004	-2.2622781E-001	-1.9598332E-001	0
1.491144796558161E+004	-2.2519650E-001	-1.9597885E-001	0
1.491145716558149E+004	-2.2406970E-001	-1.9597822E-001	0
1.491146436558140E+004	-2.2303841E-001	-1.9598204E-001	0
1.491147116558134E+004	-2.2187340E-001	-1.9597949E-001	0
1.491147756558124E+004	-2.2082300E-001	-1.9597949E-001	0
1.491148316558117E+004	-2.1979170E-001	-1.9598013E-001	0
1.491148796558112E+004	-2.1870311E-001	-1.9598204E-001	0
1.491149336558105E+004	-2.1757631E-001	-1.9598013E-001	0
1.491149816558100E+004	-2.1656410E-001	-1.9598332E-001	0
1.491150236558093E+004	-2.1553279E-001	-1.9597822E-001	0
1.491150636558089E+004	-2.1452059E-001	-1.9598332E-001	0
1.491151076558084E+004	-2.1347019E-001	-1.9597949E-001	0
1.491151436558081E+004	-2.1241978E-001	-1.9598649E-001	0
1.491151836558075E+004	-2.1125479E-001	-1.9598395E-001	0
1.491152236558071E+004	-2.1024258E-001	-1.9598204E-001	0
1.491152576558065E+004	-2.0915398E-001	-1.9597822E-001	0
1.491152956558063E+004	-2.0800810E-001	-1.9598077E-001	0
1.491153316558056E+004	-2.0693859E-001	-1.9598268E-001	0
1.491153696558053E+004	-2.0577359E-001	-1.9597822E-001	0
1.491154036558050E+004	-2.0466590E-001	-1.9598395E-001	0
1.491154396558044E+004	-2.0361550E-001	-1.9597758E-001	0
1.491154696558040E+004	-2.0254600E-001	-1.9598013E-001	0
1.491155036558036E+004	-2.0138100E-001	-1.9598395E-001	0
1.491155356558033E+004	-2.0036879E-001	-1.9598523E-001	0
1.491155656558029E+004	-1.9933750E-001	-1.9597758E-001	0
1.491155976558024E+004	-1.9826800E-001	-1.9598204E-001	0
1.491156256558021E+004	-1.9725579E-001	-1.9598140E-001	0
1.491156576558019E+004	-1.9614808E-001	-1.9598013E-001	0
1.491156896558014E+004	-1.9513588E-001	-1.9598332E-001	0
1.491157176558013E+004	-1.9410458E-001	-1.9598077E-001	0
1.491157456558009E+004	-1.9309238E-001	-1.9597632E-001	0
1.491157776558003E+004	-1.9206107E-001	-1.9597949E-001	0
1.491158076558000E+004	-1.9099157E-001	-1.9598013E-001	0
1.491158356557996E+004	-1.8994117E-001	-1.9598204E-001	0
1.491158656557993E+004	-1.8892896E-001	-1.9598140E-001	0
1.491158976557989E+004	-1.8791676E-001	-1.9597504E-001	0
1.491159276557984E+004	-1.8688545E-001	-1.9597758E-001	0
1.491159556557982E+004	-1.8579684E-001	-1.9597822E-001	0
1.491159916557977E+004	-1.8476553E-001	-1.9597885E-001	0
1.491160196557973E+004	-1.8367694E-001	-1.9598077E-001	0
1.491160516557971E+004	-1.8260744E-001	-1.9598204E-001	0
1.491160876557964E+004	-1.8146154E-001	-1.9598204E-001	0
1.491161176557961E+004	-1.8044934E-001	-1.9598268E-001	0
1.491161556557959E+004	-1.7939894E-001	-1.9598140E-001	0
1.491161876557954E+004	-1.7819574E-001	-1.9598077E-001	0
1.491162216557949E+004	-1.7718354E-001	-1.9598268E-001	0
1.491162576557945E+004	-1.7617133E-001	-1.9597758E-001	0
1.491162916557942E+004	-1.7515913E-001	-1.9598204E-001	0
1.491163276557937E+004	-1.7408963E-001	-1.9598268E-001	0
1.491163656557932E+004	-1.7307742E-001	-1.9598204E-001	0
1.491163956557929E+004	-1.7206521E-001	-1.9597758E-001	0
1.491164356557923E+004	-1.7105301E-001	-1.9598714E-001	0
1.491164736557919E+004	-1.6992621E-001	-1.9598077E-001	0
1.491165096557915E+004	-1.6889490E-001	-1.9598204E-001	0
1.491165496557910E+004	-1.6782540E-001	-1.9597949E-001	0
1.491165916557904E+004	-1.6681319E-001	-1.9598204E-001	0
1.491166316557900E+004	-1.6574369E-001	-1.9597632E-001	0
1.491166716557894E+004	-1.6473149E-001	-1.9598587E-001	0
1.491167176557890E+004	-1.6360469E-001	-1.9597822E-001	0
1.491167656557883E+004	-1.6259249E-001	-1.9598523E-001	0
1.491168096557879E+004	-1.6156119E-001	-1.9598649E-001	0
1.491168556557872E+004	-1.6054899E-001	-1.9598204E-001	0
1.491169016557868E+004	-1.5953678E-001	-1.9598204E-001	0
1.491169536557861E+004	-1.5850547E-001	-1.9598204E-001	0
1.491169996557855E+004	-1.5749326E-001	-1.9598013E-001	0
1.491170556557851E+004	-1.5640466E-001	-1.9598140E-001	0
1.491171176557841E+004	-1.5522057E-001	-1.9598523E-001	0
1.491171776557833E+004	-1.5420836E-001	-1.9598904E-001	0
1.491172456557825E+004	-1.5311977E-001	-1.9597949E-001	0
1.491173116557818E+004	-1.5206936E-001	-1.9598140E-001	0
1.491173776557812E+004	-1.5105715E-001	-1.9598013E-001	0
1.491174436557801E+004	-1.4994946E-001	-1.9598587E-001	0
1.491175236557791E+004	-1.4884177E-001	-1.9598077E-001	0
1.491176116557780E+004	-1.4771497E-001	-1.9598332E-001	0
1.491176996557770E+004	-1.4662637E-001	-1.9598077E-001	0
1.491177836557760E+004	-1.4559506E-001	-1.9597632E-001	0
1.491178736557750E+004	-1.4456376E-001	-1.9598204E-001	0
1.491179696557738E+004	-1.4355156E-001	-1.9597694E-001	0
1.491180896557722E+004	-1.4250115E-001	-1.9598332E-001	0
1.491181956557710E+004	-1.4145075E-001	-1.9598778E-001	0
1.491183216557695E+004	-1.4032395E-001	-1.9598204E-001	0
1.491184536557680E+004	-1.3931175E-001	-1.9597885E-001	0
1.491186036557661E+004	-1.3829954E-001	-1.9597949E-001	0
1.491187556557643E+004	-1.3726823E-001	-1.9598587E-001	0
1.491189136557623E+004	-1.3621783E-001	-1.9598587E-001	0
1.491191136557599E+004	-1.3518652E-001	-1.9598204E-001	0
1.491193016557579E+004	-1.3417432E-001	-1.9596995E-001	0
1.491195636557546E+004	-1.3308571E-001	-1.9598204E-001	0
1.491198516557510E+004	-1.3201621E-001	-1.9598268E-001	0
1.491201456557475E+004	-1.3098492E-001	-1.9598395E-001	0
1.491204636557438E+004	-1.2997271E-001	-1.9597949E-001	0
1.491209316557378E+004	-1.2890321E-001	-1.9597694E-001	0
1.491214416557318E+004	-1.2789100E-001	-1.9597949E-001	0
1.491220716557241E+004	-1.2685969E-001	-1.9597949E-001	0
1.491228596557146E+004	-1.2584749E-001	-1.9598268E-001	0
1.491238696557024E+004	-1.2483528E-001	-1.9598332E-001	0
1.491251616556867E+004	-1.2382308E-001	-1.9598395E-001	0
1.491273656556600E+004	-1.2281087E-001	-1.9597949E-001	0
1.491312456556130E+004	-1.2179866E-001	-1.9597632E-001	0
1.491406776554987E+004	-1.2078646E-001	-1.9597441E-001	0
1.491619256552415E+004	-1.1977425E-001	-1.9598013E-001	0
1.491799416550234E+004	-1.1876205E-001	-1.9598395E-001	0
1.491951616548392E+004	-1.1774984E-001	-1.9598140E-001	0
1.492076856546875E+004	-1.1671854E-001	-1.9598395E-001	0
1.492196336545431E+004	-1.1570633E-001	-1.9597949E-001	0
1.492315736543984E+004	-1.1469413E-001	-1.9597949E-001	0
1.492440176542476E+004	-1.1368192E-001	-1.9598459E-001	0
1.492566116540952E+004	-1.1265061E-001	-1.9597949E-001	0
1.492682216539547E+004	-1.1163840E-001	-1.9597632E-001	0
1.492805516538056E+004	-1.1062620E-001	-1.9598523E-001	0
1.492935136536484E+004	-1.0961399E-001	-1.9597949E-001	0
1.493059896534975E+004	-1.0860179E-001	-1.9598077E-001	0
1.493192676533366E+004	-1.0758958E-001	-1.9598140E-001	0
1.493334956531643E+004	-1.0655828E-001	-1.9597632E-001	0
1.493481876529864E+004	-1.0554607E-001	-1.9597758E-001	0
1.493626716528111E+004	-1.0451476E-001	-1.9598778E-001	0
1.493789296526142E+004	-1.0350256E-001	-1.9597694E-001	0
1.493952036524173E+004	-1.0249035E-001	-1.9598714E-001	0
1.494127156522052E+004	-1.0145905E-001	-1.9598140E-001	0
1.494308416519857E+004	-1.0044684E-001	-1.9597758E-001	0
1.494487776517686E+004	-9.9434637E-002	-1.9598204E-001	0
1.494703096515080E+004	-9.8422430E-002	-1.9598649E-001	0
1.494915776512504E+004	-9.7410224E-002	-1.9598459E-001	0
1.495150096509667E+004	-9.6359819E-002	-1.9597885E-001	0
1.495416036506447E+004	-9.5347613E-002	-1.9598395E-001	0
1.495684476503197E+004	-9.4316311E-002	-1.9598077E-001	0
1.495996556499420E+004	-9.3304105E-002	-1.9598649E-001	0
1.496296396495789E+004	-9.2272796E-002	-1.9598204E-001	0
1.496633776491704E+004	-9.1260590E-002	-1.9598013E-001	0
1.496996556487313E+004	-9.0210192E-002	-1.9598268E-001	0
1.497436196481989E+004	-8.9197986E-002	-1.9597694E-001	0
1.497841236477086E+004	-8.8185772E-002	-1.9597758E-001	0
1.498341236471033E+004	-8.7555535E-002	-1.9598459E-001	0
1.498751836466060E+004	-8.6543329E-002	-1.9597822E-001	0
1.499251836460007E+004	-8.5932188E-002	-1.9598649E-001	0
1.499751836453953E+004	-8.5206449E-002	-1.9598140E-001	0
1.500251836447899E+004	-8.4671699E-002	-1.9598077E-001	0
1.500751836441846E+004	-8.4003262E-002	-1.9598523E-001	0
1.501251836435792E+004	-8.3373018E-002	-1.9598459E-001	0
1.501751836429739E+004	-8.2914665E-002	-1.9598587E-001	0
1.502251836423685E+004	-8.2494505E-002	-1.9598140E-001	0
1.502751836417631E+004	-8.2131639E-002	-1.9597694E-001	0
1.503251836411578E+004	-8.1711471E-002	-1.9598395E-001	0
1.503751836405524E+004	-8.1463195E-002	-1.9598268E-001	0
1.504251836399471E+004	-8.1138529E-002	-1.9597885E-001	0
1.504751836393417E+004	-8.0756560E-002	-1.9598778E-001	0
1.505251836387363E+004	-8.0546483E-002	-1.9598395E-001	0
1.505751836381310E+004	-8.0412798E-002	-1.9597949E-001	0
1.506251836375256E+004	-8.0049925E-002	-1.9598013E-001	0
1.506751836369203E+004	-7.9897143E-002	-1.9598077E-001	0
1.507251836363149E+004	-7.9744354E-002	-1.9597949E-001	0
1.507751836357095E+004	-7.9591572E-002	-1.9597758E-001	0
1.508251836351042E+004	-7.9400592E-002	-1.9597885E-001	0
1.508751836344988E+004	-7.9133213E-002	-1.9597949E-001	0
1.509251836338935E+004	-7.8999527E-002	-1.9598268E-001	0
1.509751836332881E+004	-7.8827642E-002	-1.9597632E-001	0
1.510251836326827E+004	-7.8827642E-002	-1.9598459E-001	0
1.510751836320774E+004	-7.8598462E-002	-1.9598395E-001	0
1.511251836314720E+004	-7.8598462E-002	-1.9598204E-001	0
1.511751836308667E+004	-7.8331091E-002	-1.9597949E-001	0
1.512251836302613E+004	-7.8235596E-002	-1.9598587E-001	0
1.512751836296559E+004	-7.8063712E-002	-1.9597949E-001	0
1.513251836290506E+004	-7.8159206E-002	-1.9598332E-001	0
1.513751836284452E+004	-7.7891827E-002	-1.9598013E-001	0
1.514251836278399E+004	-7.7777237E-002	-1.9598332E-001	0
1.514751836272345E+004	-7.7681750E-002	-1.9597758E-001	0
1.515251836266292E+004	-7.7662647E-002	-1.9597758E-001	0
1.515751836260238E+004	-7.7567160E-002	-1.9598587E-001	0
1.516251836254184E+004	-7.7509865E-002	-1.9598395E-001	0
1.516751836248131E+004	-7.7414371E-002	-1.9598204E-001	0
1.517251836242077E+004	-7.7299781E-002	-1.9597694E-001	0
1.517751836236024E+004	-7.7376172E-002	-1.9598778E-001	0
1.518251836229970E+004	-7.7108800E-002	-1.9597758E-001	0
1.518751836223916E+004	-7.7108800E-002	-1.9598268E-001	0
1.519251836217863E+004	-7.6936916E-002	-1.9597758E-001	0
1.519751836211809E+004	-7.7032410E-002	-1.9598395E-001	0
1.520251836205756E+004	-7.6956011E-002	-1.9597758E-001	0
1.520751836199702E+004	-7.7013306E-002	-1.9598204E-001	0
1.521251836193648E+004	-7.6765031E-002	-1.9598077E-001	0
1.521751836187595E+004	-7.6745935E-002	-1.9597885E-001	0
1.522251836181541E+004	-7.6784134E-002	-1.9598013E-001	0
1.522751836175488E+004	-7.6765031E-002	-1.9598840E-001	0
1.523251836169434E+004	-7.6765031E-002	-1.9598459E-001	0
1.523751836163380E+004	-7.6612249E-002	-1.9597822E-001	0
1.524251836157327E+004	-7.6669544E-002	-1.9598459E-001	0
1.524751836151273E+004	-7.6516755E-002	-1.9598649E-001	0
1.525251836145220E+004	-7.6497659E-002	-1.9598459E-001	0
1.525751836139166E+004	-7.6516755E-002	-1.9598140E-001	0
1.526251836133112E+004	-7.6402165E-002	-1.9598013E-001	0
1.526751836127059E+004	-7.6383069E-002	-1.9598268E-001	0
1.527251836121005E+004	-7.6268479E-002	-1.9598395E-001	0
1.527751836114952E+004	-7.6325774E-002	-1.9598204E-001	0
1.528251836108898E+004	-7.6211184E-002	-1.9598013E-001	0
1.528751836102844E+004	-7.6230280E-002	-1.9597949E-001	0
1.529251836096791E+004	-7.6172985E-002	-1.9598332E-001	0
1.529751836090737E+004	-7.6344870E-002	-1.9598332E-001	0
1.530251836084684E+004	-7.6077498E-002	-1.9597632E-001	0
1.530751836078630E+004	-7.6096594E-002	-1.9597885E-001	0
1.531251836072576E+004	-7.6096594E-002	-1.9598523E-001	0
1.531751836066523E+004	-7.6020204E-002	-1.9597949E-001	0
1.532251836060469E+004	-7.5962909E-002	-1.9597949E-001	0
1.532751836054416E+004	-7.6001100E-002	-1.9597694E-001	0
1.533251836048362E+004	-7.5905614E-002	-1.9597885E-001	0
1.533751836042308E+004	-7.5962909E-002	-1.9598459E-001	0
1.534251836036255E+004	-7.5829215E-002	-1.9598332E-001	0
1.534751836030201E+004	-7.5924709E-002	-1.9597885E-001	0
1.535251836024148E+004	-7.5829215E-002	-1.9598714E-001	0
1.535751836018094E+004	-7.5848319E-002	-1.9598204E-001	0
1.536251836012040E+004	-7.5714633E-002	-1.9598077E-001	0
1.536751836005987E+004	-7.5905614E-002	-1.9598459E-001	0
1.537251835999933E+004	-7.5791024E-002	-1.9598077E-001	0
1.537751835993880E+004	-7.5829215E-002	-1.9597885E-001	0
1.538251835987826E+004	-7.5714633E-002	-1.9597694E-001	0
1.538751835981772E+004	-7.5752825E-002	-1.9598395E-001	0
1.539251835975719E+004	-7.5676434E-002	-1.9598523E-001	0
1.539751835969665E+004	-7.5580940E-002	-1.9598204E-001	0
1.540251835963612E+004	-7.5638235E-002	-1.9598714E-001	0
1.540751835957558E+004	-7.5580940E-002	-1.9597758E-001	0
1.541251835951504E+004	-7.5657338E-002	-1.9597949E-001	0
1.541751835945451E+004	-7.5619139E-002	-1.9598077E-001	0
1.542251835939397E+004	-7.5428158E-002	-1.9598077E-001	0
1.542751835933344E+004	-7.5504549E-002	-1.9598077E-001	0
1.543251835927290E+004	-7.5561844E-002	-1.9597632E-001	0
1.543751835921236E+004	-7.5447254E-002	-1.9598332E-001	0
1.544251835915183E+004	-7.5428158E-002	-1.9597568E-001	0
1.544751835909129E+004	-7.5370863E-002	-1.9598077E-001	0
1.545251835903076E+004	-7.5332664E-002	-1.9597949E-001	0
1.545751835897022E+004	-7.5351760E-002	-1.9598523E-001	0
1.546251835890969E+004	-7.5370863E-002	-1.9598140E-001	0
1.546751835884915E+004	-7.5447254E-002	-1.9598268E-001	0
1.547251835878861E+004	-7.5389959E-002	-1.9598714E-001	0
1.547751835872808E+004	-7.5370863E-002	-1.9598395E-001	0
1.548251835866754E+004	-7.5103484E-002	-1.9598268E-001	0
1.548751835860701E+004	-7.5275369E-002	-1.9597758E-001	0
1.549251835854647E+004	-7.5179882E-002	-1.9598332E-001	0
1.549751835848593E+004	-7.5027093E-002	-1.9598204E-001	0
1.550251835842540E+004	-7.5256273E-002	-1.9597949E-001	0
1.550751835836486E+004	-7.5179882E-002	-1.9598395E-001	0
1.551251835830433E+004	-7.5046189E-002	-1.9597694E-001	0
1.551751835824379E+004	-7.4988894E-002	-1.9598332E-001	0
1.552251835818325E+004	-7.5007997E-002	-1.9597632E-001	0
1.552751835812272E+004	-7.5103484E-002	-1.9598332E-001	0
1.553251835806218E+004	-7.5065292E-002	-1.9598140E-001	0
1.553751835800165E+004	-7.4969798E-002	-1.9598140E-001	0
1.554251835794111E+004	-7.5103484E-002	-1.9598523E-001	0
1.554751835788057E+004	-7.4988894E-002	-1.9597758E-001	0
1.555251835782004E+004	-7.4912503E-002	-1.9598332E-001	0
1.555751835775950E+004	-7.4893408E-002	-1.9598268E-001	0
1.556251835769897E+004	-7.4950702E-002	-1.9597632E-001	0
1.556751835763843E+004	-7.4874304E-002	-1.9597694E-001	0
1.557251835757789E+004	-7.4874304E-002	-1.9597949E-001	0
1.557751835751736E+004	-7.4855208E-002	-1.9598204E-001	0
1.558251835745682E+004	-7.4950702E-002	-1.9598077E-001	0
1.558751835739629E+004	-7.4931599E-002	-1.9598140E-001	0
1.559251835733575E+004	-7.4855208E-002	-1.9598077E-001	0
1.559751835727521E+004	-7.4855208E-002	-1.9598523E-001	0
1.560251835721468E+004	-7.4893408E-002	-1.9597758E-001	0
1.560751835715414E+004	-7.4626029E-002	-1.9597694E-001	0
1.561251835709361E+004	-7.4645132E-002	-1.9597822E-001	0
1.561751835703307E+004	-7.4664228E-002	-1.9598523E-001	0
1.562251835697253E+004	-7.4626029E-002	-1.9598140E-001	0
1.562751835691200E+004	-7.4683324E-002	-1.9598332E-001	0
1.563251835685146E+004	-7.4511439E-002	-1.9597758E-001	0
1.563751835679093E+004	-7.4587837E-002	-1.9598077E-001	0
1.564251835673039E+004	-7.4568734E-002	-1.9597822E-001	0
1.564751835666985E+004	-7.4587837E-002	-1.9598268E-001	0
1.565251835660932E+004	-7.4435048E-002	-1.9597949E-001	0
1.565751835654878E+004	-7.4396849E-002	-1.9597949E-001	0
1.566251835648825E+004	-7.4492343E-002	-1.9598268E-001	0
1.566751835642771E+004	-7.4454144E-002	-1.9598140E-001	0
1.567251835636717E+004	-7.4530542E-002	-1.9598204E-001	0
1.567751835630664E+004	-7.4358657E-002	-1.9598140E-001	0
1.568251835624610E+004	-7.4473247E-002	-1.9598714E-001	0
1.568751835618557E+004	-7.4396849E-002	-1.9598395E-001	0
1.569251835612503E+004	-7.4358657E-002	-1.9598013E-001	0
1.569751835606449E+004	-7.4282259E-002	-1.9598395E-001	0
1.570251835600396E+004	-7.4282259E-002	-1.9598332E-001	0
1.570751835594342E+004	-7.4282259E-002	-1.9597949E-001	0
1.571251835588289E+004	-7.4320458E-002	-1.9597949E-001	0
1.571751835582235E+004	-7.4244067E-002	-1.9597441E-001	0
1.572251835576181E+004	-7.4110374E-002	-1.9598268E-001	0
1.572751835570128E+004	-7.4244067E-002	-1.9598332E-001	0
1.573251835564074E+004	-7.4129477E-002	-1.9597949E-001	0
1.573751835558021E+004	-7.4224964E-002	-1.9597822E-001	0
1.574251835551967E+004	-7.4072182E-002	-1.9598332E-001	0
1.574751835545913E+004	-7.4129477E-002	-1.9597949E-001	0
1.575251835539860E+004	-7.4072182E-002	-1.9597313E-001	0
1.575751835533806E+004	-7.4129477E-002	-1.9597949E-001	0
1.576251835527753E+004	-7.4072182E-002	-1.9598395E-001	0
1.576751835521699E+004	-7.4129477E-002	-1.9597822E-001	0
1.577251835515646E+004	-7.4244067E-002	-1.9598395E-001	0
1.577751835509592E+004	-7.3957592E-002	-1.9597885E-001	0
1.578251835503538E+004	-7.3957592E-002	-1.9598268E-001	0
1.578751835497485E+004	-7.4033983E-002	-1.9598268E-001	0
1.579251835491431E+004	-7.4091278E-002	-1.9598204E-001	0
1.579751835485378E+004	-7.3995791E-002	-1.9598459E-001	0
1.580251835479324E+004	-7.3900297E-002	-1.9597822E-001	0
1.580751835473270E+004	-7.3804803E-002	-1.9598204E-001	0
1.581251835467217E+004	-7.3804803E-002	-1.9597949E-001	0
1.581751835461163E+004	-7.3938496E-002	-1.9597949E-001	0
1.582251835455110E+004	-7.3747508E-002	-1.9598140E-001	0
1.582751835449056E+004	-7.3843002E-002	-1.9598332E-001	0
1.583251835443002E+004	-7.3843002E-002	-1.9598332E-001	0
1.583751835436949E+004	-7.3881201E-002	-1.9597504E-001	0
1.584251835430895E+004	-7.3881201E-002	-1.9597758E-001	0
1.584751835424842E+004	-7.3766612E-002	-1.9598840E-001	0
1.585251835418788E+004	-7.3747508E-002	-1.9598395E-001	0
1.585751835412734E+004	-7.3690213E-002	-1.9597568E-001	0
1.586251835406681E+004	-7.3690213E-002	-1.9598332E-001	0
1.586751835400627E+004	-7.3652022E-002	-1.9598587E-001	0
1.587251835394574E+004	-7.3671117E-002	-1.9597885E-001	0
1.587751835388520E+004	-7.3652022E-002	-1.9597504E-001	0
1.588251835382466E+004	-7.3575623E-002	-1.9598587E-001	0
1.588751835376413E+004	-7.3690213E-002	-1.9597822E-001	0
1.589251835370359E+004	-7.3518336E-002	-1.9598077E-001	0
1.589751835364306E+004	-7.3613822E-002	-1.9598395E-001	0
1.590251835358252E+004	-7.3575623E-002	-1.9598140E-001	0
1.590751835352198E+004	-7.3594727E-002	-1.9597949E-001	0
1.591251835346145E+004	-7.3613822E-002	-1.9598840E-001	0
1.591751835340091E+004	-7.3441938E-002	-1.9598459E-001	0
1.592251835334038E+004	-7.3480137E-002	-1.9597504E-001	0
1.592751835327984E+004	-7.3461041E-002	-1.9597504E-001	0
1.593251835321930E+004	-7.3537432E-002	-1.9598204E-001	0
1.593751835315877E+004	-7.3556527E-002	-1.9598140E-001	0
1.594251835309823E+004	-7.3441938E-002	-1.9598013E-001	0
1.594751835303770E+004	-7.3346451E-002	-1.9598013E-001	0
1.595251835297716E+004	-7.3403746E-002	-1.9598523E-001	0
1.595751835291662E+004	-7.3346451E-002	-1.9598013E-001	0
1.596251835285609E+004	-7.3346451E-002	-1.9598268E-001	0
1.596751835279555E+004	-7.3422842E-002	-1.9597504E-001	0
1.597251835273502E+004	-7.3250957E-002	-1.9598840E-001	0
1.597751835267448E+004	-7.3308252E-002	-1.9598395E-001	0
1.598251835261394E+004	-7.3308252E-002	-1.9598268E-001	0
1.598751835255341E+004	-7.3308252E-002	-1.9598077E-001	0
1.599251835249287E+004	-7.3327348E-002	-1.9597885E-001	0
1.599751835243234E+004	-7.3308252E-002	-1.9598140E-001	0
1.600251835237180E+004	-7.3289156E-002	-1.9598013E-001	0
1.600751835231126E+004	-7.3174566E-002	-1.9598395E-001	0
1.601251835225073E+004	-7.3231861E-002	-1.9598077E-001	0
1.601751835219019E+004	-7.3155463E-002	-1.9598013E-001	0
1.602251835212966E+004	-7.3136367E-002	-1.9598140E-001	0
1.602751835206912E+004	-7.3212758E-002	-1.9598459E-001	0
1.603251835200858E+004	-7.3174566E-002	-1.9597694E-001	0
1.603751835194805E+004	-7.3098168E-002	-1.9597822E-001	0
1.604251835188751E+004	-7.3174566E-002	-1.9598077E-001	0
1.604751835182698E+004	-7.3079072E-002	-1.9598332E-001	0
1.605251835176644E+004	-7.2964482E-002	-1.9598332E-001	0
1.605751835170590E+004	-7.3059976E-002	-1.9598714E-001	0
1.606251835164537E+004	-7.3117271E-002	-1.9598204E-001	0
1.606751835158483E+004	-7.3002681E-002	-1.9598204E-001	0
1.607251835152430E+004	-7.3040873E-002	-1.9598587E-001	0
1.607751835146376E+004	-7.2964482E-002	-1.9597822E-001	0
1.608251835140323E+004	-7.3002681E-002	-1.9597822E-001	0
1.608751835134269E+004	-7.3002681E-002	-1.9597949E-001	0
1.609251835128215E+004	-7.2983585E-002	-1.9597822E-001	0
1.609751835122162E+004	-7.2983585E-002	-1.9598587E-001	0
1.610251835116108E+004	-7.2926290E-002	-1.9598268E-001	0
1.610751835110055E+004	-7.2888091E-002	-1.9597758E-001	0
1.611251835104001E+004	-7.2964482E-002	-1.9597949E-001	0
1.611751835097947E+004	-7.2945386E-002	-1.9598013E-001	0
1.612251835091894E+004	-7.2888091E-002	-1.9597885E-001	0
1.612751835085840E+004	-7.2888091E-002	-1.9598140E-001	0
1.613251835079787E+004	-7.2849892E-002	-1.9598714E-001	0
1.613751835073733E+004	-7.2830796E-002	-1.9598077E-001	0
1.614251835067679E+004	-7.2888091E-002	-1.9598395E-001	0
1.614751835061626E+004	-7.2926290E-002	-1.9598395E-001	0
1.615251835055572E+004	-7.2830796E-002	-1.9597568E-001	0
1.615751835049519E+004	-7.2811700E-002	-1.9598587E-001	0
1.616251835043465E+004	-7.2830796E-002	-1.9598268E-001	0
1.616751835037411E+004	-7.2830796E-002	-1.9597822E-001	0
1.617251835031358E+004	-7.2830796E-002	-1.9598268E-001	0
1.617751835025304E+004	-7.2811700E-002	-1.9598587E-001	0
1.618251835019251E+004	-7.2735302E-002	-1.9598395E-001	0
1.618751835013197E+004	-7.2773501E-002	-1.9598013E-001	0
1.619251835007143E+004	-7.2754405E-002	-1.9598587E-001	0
1.619751835001090E+004	-7.2811700E-002	-1.9597441E-001	0
1.620251834995036E+004	-7.2773501E-002	-1.9598140E-001	0
1.620751834988983E+004	-7.2811700E-002	-1.9597377E-001	0
1.621251834982929E+004	-7.2639816E-002	-1.9598268E-001	0
1.621751834976875E+004	-7.2678007E-002	-1.9598077E-001	0
1.622251834970822E+004	-7.2773501E-002	-1.9598268E-001	0
1.622751834964768E+004	-7.2697110E-002	-1.9598332E-001	0
1.623251834958715E+004	-7.2716206E-002	-1.9597694E-001	0
1.623751834952661E+004	-7.2735302E-002	-1.9597632E-001	0
1.624251834946607E+004	-7.2601616E-002	-1.9598587E-001	0
1.624751834940554E+004	-7.2678007E-002	-1.9598714E-001	0
1.625251834934500E+004	-7.2639816E-002	-1.9598459E-001	0
1.625751834928447E+004	-7.2697110E-002	-1.9598204E-001	0
1.626251834922393E+004	-7.2582521E-002	-1.9598268E-001	0
1.626751834916339E+004	-7.2601616E-002	-1.9598714E-001	0
1.627251834910286E+004	-7.2563417E-002	-1.9598204E-001	0
1.627751834904232E+004	-7.2658911E-002	-1.9598459E-001	0
1.628251834898179E+004	-7.2639816E-002	-1.9598714E-001	0
1.628751834892125E+004	-7.2448835E-002	-1.9598204E-001	0
1.629251834886071E+004	-7.2467931E-002	-1.9598395E-001	0
1.629751834880018E+004	-7.2544321E-002	-1.9598204E-001	0
1.630251834873964E+004	-7.2429731E-002	-1.9598268E-001	0
1.630751834867911E+004	-7.2620712E-002	-1.9597885E-001	0
1.631251834861857E+004	-7.2639816E-002	-1.9598268E-001	0
1.631751834855803E+004	-7.2582521E-002	-1.9598587E-001	0
1.632251834849750E+004	-7.2487026E-002	-1.9597949E-001	0
1.632751834843696E+004	-7.2582521E-002	-1.9598268E-001	0
1.633251834837643E+004	-7.2544321E-002	-1.9597694E-001	0
1.633751834831589E+004	-7.2506122E-002	-1.9598140E-001	0
1.634251834825535E+004	-7.2429731E-002	-1.9598332E-001	0
1.634751834819482E+004	-7.2448835E-002	-1.9598904E-001	0
1.635251834813428E+004	-7.2429731E-002	-1.9598204E-001	0
1.635751834807375E+004	-7.2487026E-002	-1.9598204E-001	0
1.636251834801321E+004	-7.2563417E-002	-1.9598587E-001	0
1.636751834795268E+004	-7.2487026E-002	-1.9597694E-001	0
1.637251834789214E+004	-7.2582521E-002	-1.9598268E-001	0
1.637751834783160E+004	-7.2467931E-002	-1.9598268E-001	0
1.638251834777107E+004	-7.2410636E-002	-1.9599031E-001	0
1.638751834771055E+004	-7.2429731E-002	-1.9598523E-001	0
1.639251834765001E+004	-7.2448835E-002	-1.9597885E-001	0
1.639751834758947E+004	-7.2410636E-002	-1.9597822E-001	0
1.640251834752894E+004	-7.2487026E-002	-1.9598459E-001	0
1.640751834746840E+004	-7.2525226E-002	-1.9598332E-001	0
1.641251834740787E+004	-7.2353341E-002	-1.9598077E-001	0
1.641751834734733E+004	-7.2391540E-002	-1.9598268E-001	0
1.642251834728679E+004	-7.2353341E-002	-1.9597822E-001	0
1.642751834722626E+004	-7.2334245E-002	-1.9598649E-001	0
1.643251834716572E+004	-7.2353341E-002	-1.9598268E-001	0
1.643751834710519E+004	-7.2334245E-002	-1.9598840E-001	0
1.644251834704465E+004	-7.2334245E-002	-1.9598077E-001	0
1.644751834698411E+004	-7.2410636E-002	-1.9597822E-001	0
1.645251834692358E+004	-7.2372437E-002	-1.9597632E-001	0
1.645751834686304E+004	-7.2296046E-002	-1.9598587E-001	0
1.646251834680251E+004	-7.2315142E-002	-1.9597822E-001	0
1.646751834674197E+004	-7.2372437E-002	-1.9598140E-001	0
1.647251834668143E+004	-7.2372437E-002	-1.9598332E-001	0
1.647751834662090E+004	-7.2353341E-002	-1.9598459E-001	0
1.648251834656036E+004	-7.2353341E-002	-1.9598204E-001	0
1.648751834649983E+004	-7.2353341E-002	-1.9598204E-001	0
1.649251834643929E+004	-7.2257847E-002	-1.9599031E-001	0
1.649751834637875E+004	-7.2257847E-002	-1.9598268E-001	0
1.650251834631822E+004	-7.2391540E-002	-1.9598077E-001	0
1.650751834625768E+004	-7.2334245E-002	-1.9597822E-001	0
1.651251834619715E+004	-7.2334245E-002	-1.9598523E-001	0
1.651751834613661E+004	-7.2296046E-002	-1.9597885E-001	0
1.652251834607607E+004	-7.2296046E-002	-1.9598395E-001	0
1.652751834601554E+004	-7.2276950E-002	-1.9598778E-001	0
1.653251834595500E+004	-7.2315142E-002	-1.9598523E-001	0
1.653751834589447E+004	-7.2219655E-002	-1.9598587E-001	0
1.654251834583393E+004	-7.2276950E-002	-1.9597504E-001	0
1.654751834577339E+004	-7.2162360E-002	-1.9598459E-001	0
1.655251834571286E+004	-7.2315142E-002	-1.9598140E-001	0
1.655751834565232E+004	-7.2143257E-002	-1.9598268E-001	0
1.656251834559179E+004	-7.2315142E-002	-1.9598140E-001	0
1.656751834553125E+004	-7.2238751E-002	-1.9598459E-001	0
1.657251834547071E+004	-7.2219655E-002	-1.9598523E-001	0
1.657751834541018E+004	-7.2219655E-002	-1.9598332E-001	0
1.658251834534964E+004	-7.2143257E-002	-1.9598332E-001	0
1.658751834528911E+004	-7.2105065E-002	-1.9597568E-001	0
1.659251834522857E+004	-7.2085962E-002	-1.9598459E-001	0
1.659751834516804E+004	-7.2219655E-002	-1.9598395E-001	0
1.660251834510750E+004	-7.2257847E-002	-1.9598204E-001	0
1.660751834504696E+004	-7.2200552E-002	-1.9598459E-001	0
1.661251834498643E+004	-7.2047770E-002	-1.9597758E-001	0
1.661751834492589E+004	-7.2143257E-002	-1.9598523E-001	0
1.662251834486536E+004	-7.2276950E-002	-1.9598204E-001	0
1.662751834480482E+004	-7.2066866E-002	-1.9598204E-001	0
1.663251834474428E+004	-7.2066866E-002	-1.9598587E-001	0
1.663751834468375E+004	-7.2105065E-002	-1.9598587E-001	0
1.664251834462321E+004	-7.2124161E-002	-1.9598649E-001	0
1.664751834456268E+004	-7.2105065E-002	-1.9598332E-001	0
1.665251834450214E+004	-7.2105065E-002	-1.9598013E-001	0
1.665751834444160E+004	-7.2085962E-002	-1.9598649E-001	0
1.666251834438107E+004	-7.2143257E-002	-1.9598395E-001	0
1.666751834432053E+004	-7.2085962E-002	-1.9598523E-001	0
1.667251834426000E+004	-7.2047770E-002	-1.9597377E-001	0
1.667751834419946E+004	-7.2028667E-002	-1.9597822E-001	0
1.668251834413892E+004	-7.1971372E-002	-1.9598523E-001	0
1.668751834407839E+004	-7.2143257E-002	-1.9597694E-001	0
1.669251834401785E+004	-7.1990475E-002	-1.9597758E-001	0
1.669751834395732E+004	-7.2047770E-002	-1.9598140E-001	0
1.670251834389678E+004	-7.2105065E-002	-1.9598714E-001	0
1.670751834383624E+004	-7.1990475E-002	-1.9597885E-001	0
1.671111254379270E+004	-7.1971372E-002	-1.9598332E-001	0