time/s	Ewe/V	I/mA	error	
1.218433969219623E+002	-4.0192162E-003	-1.9592407E-001	0
1.218441969219421E+002	-5.4138917E-003	-1.9589861E-001	0
1.218449969219218E+002	-6.4455695E-003	-1.9589861E-001	0
1.218457969219016E+002	-7.5154575E-003	-1.9596864E-001	0
1.218465969218814E+002	-8.6044502E-003	-1.9588587E-001	0
1.218473969218612E+002	-9.6361283E-003	-1.9589223E-001	0
1.218483969218360E+002	-1.0648700E-002	-1.9586676E-001	0
1.218491969218157E+002	-1.1680379E-002	-1.9596228E-001	0
1.218503969217854E+002	-1.2807583E-002	-1.9587313E-001	0
1.218515969217551E+002	-1.3896575E-002	-1.9593042E-001	0
1.218527969217248E+002	-1.5081095E-002	-1.9591771E-001	0
1.218539969216945E+002	-1.6131876E-002	-1.9585401E-001	0
1.218551969216642E+002	-1.7182659E-002	-1.9586676E-001	0
1.218565969216288E+002	-1.8328968E-002	-1.9589861E-001	0
1.218577969215985E+002	-1.9417962E-002	-1.9594316E-001	0
1.218591969215631E+002	-2.0526059E-002	-1.9595590E-001	0
1.218605969215278E+002	-2.1595947E-002	-1.9593681E-001	0
1.218619969214924E+002	-2.2818677E-002	-1.9589223E-001	0
1.218635969214520E+002	-2.3869460E-002	-1.9603232E-001	0
1.218651969214116E+002	-2.4920244E-002	-1.9591771E-001	0
1.218667969213711E+002	-2.6028341E-002	-1.9590497E-001	0
1.218683969213307E+002	-2.7212860E-002	-1.9591771E-001	0
1.218701969212852E+002	-2.8397379E-002	-1.9590497E-001	0
1.218719969212398E+002	-2.9524583E-002	-1.9593042E-001	0
1.218735969211994E+002	-3.0651785E-002	-1.9587950E-001	0
1.218753969211539E+002	-3.1664357E-002	-1.9585401E-001	0
1.218773969211034E+002	-3.2829773E-002	-1.9593681E-001	0
1.218791969210579E+002	-3.3880554E-002	-1.9596864E-001	0
1.218809969210124E+002	-3.4931336E-002	-1.9594316E-001	0
1.218829969209619E+002	-3.6058541E-002	-1.9592407E-001	0
1.218847969209164E+002	-3.7147533E-002	-1.9594952E-001	0
1.218869969208608E+002	-3.8179211E-002	-1.9596228E-001	0
1.218889969208103E+002	-3.9229997E-002	-1.9593681E-001	0
1.218909969207598E+002	-4.0433619E-002	-1.9590497E-001	0
1.218933969206992E+002	-4.1522611E-002	-1.9590497E-001	0
1.218955969206436E+002	-4.2573396E-002	-1.9589861E-001	0
1.218975969205931E+002	-4.3605074E-002	-1.9596228E-001	0
1.218999969205324E+002	-4.4713169E-002	-1.9598138E-001	0
1.219023969204718E+002	-4.5744848E-002	-1.9594316E-001	0
1.219049969204061E+002	-4.6910264E-002	-1.9586676E-001	0
1.219075969203404E+002	-4.7980152E-002	-1.9598138E-001	0
1.219099969202798E+002	-4.9164671E-002	-1.9595590E-001	0
1.219129969202040E+002	-5.0310977E-002	-1.9601323E-001	0
1.219155969201383E+002	-5.1399972E-002	-1.9587950E-001	0
1.219185969200626E+002	-5.2431650E-002	-1.9598775E-001	0
1.219211969199969E+002	-5.3482432E-002	-1.9591771E-001	0
1.219239969199261E+002	-5.4647844E-002	-1.9588587E-001	0
1.219269969198504E+002	-5.5660419E-002	-1.9600049E-001	0
1.219301969197695E+002	-5.6940462E-002	-1.9596864E-001	0
1.219337969196786E+002	-5.8105879E-002	-1.9586676E-001	0
1.219371969195927E+002	-5.9156660E-002	-1.9594316E-001	0
1.219399969195219E+002	-6.0245652E-002	-1.9589861E-001	0
1.219435969194310E+002	-6.1296437E-002	-1.9586676E-001	0
1.219469969193451E+002	-6.2423639E-002	-1.9587313E-001	0
1.219505969192542E+002	-6.3436210E-002	-1.9599412E-001	0
1.219541969191632E+002	-6.4506099E-002	-1.9589861E-001	0
1.219577969190723E+002	-6.5518670E-002	-1.9594952E-001	0
1.219613969189813E+002	-6.6550352E-002	-1.9586040E-001	0
1.219651969188853E+002	-6.7601129E-002	-1.9592407E-001	0
1.219689969187893E+002	-6.8671018E-002	-1.9591771E-001	0
1.219733969186782E+002	-6.9683589E-002	-1.9584766E-001	0
1.219767969185923E+002	-7.0715271E-002	-1.9581582E-001	0
1.219817969184660E+002	-7.1766056E-002	-1.9591771E-001	0
1.219865969183447E+002	-7.2855048E-002	-1.9596864E-001	0
1.219905969182437E+002	-7.3905833E-002	-1.9594316E-001	0
1.219959969181073E+002	-7.4956611E-002	-1.9587950E-001	0
1.220001969180012E+002	-7.5988293E-002	-1.9595590E-001	0
1.220053969178698E+002	-7.7019967E-002	-1.9596864E-001	0
1.220103969177435E+002	-7.8051649E-002	-1.9596228E-001	0
1.220151969176222E+002	-7.9064220E-002	-1.9593042E-001	0
1.220209969174757E+002	-8.0095895E-002	-1.9591133E-001	0
1.220271969173191E+002	-8.1108466E-002	-1.9593681E-001	0
1.220329969171726E+002	-8.2235672E-002	-1.9599412E-001	0
1.220391969170159E+002	-8.3305560E-002	-1.9589223E-001	0
1.220455969168543E+002	-8.4394552E-002	-1.9587313E-001	0
1.220525969166774E+002	-8.5407123E-002	-1.9589861E-001	0
1.220595969165006E+002	-8.6515225E-002	-1.9595590E-001	0
1.220671969163086E+002	-8.7527797E-002	-1.9601957E-001	0
1.220743969161267E+002	-8.8616788E-002	-1.9593042E-001	0
1.220825969159196E+002	-8.9667574E-002	-1.9599412E-001	0
1.220905969157175E+002	-9.0699248E-002	-1.9594952E-001	0
1.220991969155002E+002	-9.1750033E-002	-1.9599412E-001	0
1.221077969152830E+002	-9.2762604E-002	-1.9593042E-001	0
1.221167969150556E+002	-9.3908913E-002	-1.9596228E-001	0
1.221275969147828E+002	-9.5074326E-002	-1.9593681E-001	0
1.221377969145251E+002	-9.6086904E-002	-1.9595590E-001	0
1.221483969142573E+002	-9.7118579E-002	-1.9598138E-001	0
1.221585969139996E+002	-9.8150261E-002	-1.9591771E-001	0
1.221711969136813E+002	-9.9162832E-002	-1.9589223E-001	0
1.221833969133731E+002	-1.0034735E-001	-1.9587950E-001	0
1.221973969130195E+002	-1.0145545E-001	-1.9598775E-001	0
1.222117969126557E+002	-1.0250623E-001	-1.9589223E-001	0
1.222255969123071E+002	-1.0351880E-001	-1.9595590E-001	0
1.222407969119231E+002	-1.0455048E-001	-1.9589861E-001	0
1.222565969115240E+002	-1.0560127E-001	-1.9589861E-001	0
1.222733969110996E+002	-1.0661384E-001	-1.9596864E-001	0
1.222913969106448E+002	-1.0764551E-001	-1.9593681E-001	0
1.223105969101598E+002	-1.0865808E-001	-1.9593681E-001	0
1.223313969096344E+002	-1.0972797E-001	-1.9584766E-001	0
1.223535969090735E+002	-1.1074055E-001	-1.9592407E-001	0
1.223765969084925E+002	-1.1175312E-001	-1.9592407E-001	0
1.224031969078205E+002	-1.1280391E-001	-1.9588587E-001	0
1.224353969070071E+002	-1.1383558E-001	-1.9586676E-001	0
1.224703969061229E+002	-1.1490547E-001	-1.9590497E-001	0
1.225201969048649E+002	-1.1593714E-001	-1.9590497E-001	0
1.226107969025761E+002	-1.1694972E-001	-1.9600683E-001	0
1.227161968999135E+002	-1.1593714E-001	-1.9593681E-001	0
1.227665968986403E+002	-1.1492457E-001	-1.9591771E-001	0
1.228087968975742E+002	-1.1391200E-001	-1.9588587E-001	0
1.228495968965435E+002	-1.1282301E-001	-1.9585401E-001	0
1.228901968955179E+002	-1.1173402E-001	-1.9587950E-001	0
1.229269968945882E+002	-1.1072144E-001	-1.9586676E-001	0
1.229613968937192E+002	-1.0961334E-001	-1.9591771E-001	0
1.230017968926986E+002	-1.0856256E-001	-1.9590497E-001	0
1.230417968916881E+002	-1.0745446E-001	-1.9597502E-001	0
1.230831968906423E+002	-1.0640368E-001	-1.9593042E-001	0
1.231249968895863E+002	-1.0535289E-001	-1.9595590E-001	0
1.231697968884546E+002	-1.0434032E-001	-1.9595590E-001	0
1.232139968873380E+002	-1.0332775E-001	-1.9585401E-001	0
1.232635968860850E+002	-1.0231518E-001	-1.9594316E-001	0
1.233191968846804E+002	-1.0128350E-001	-1.9591771E-001	0
1.233805968831293E+002	-1.0027093E-001	-1.9596864E-001	0
1.234457968814822E+002	-9.9258356E-002	-1.9592407E-001	0
1.235231968795270E+002	-9.8150261E-002	-1.9593681E-001	0
1.236089968773595E+002	-9.7137682E-002	-1.9594952E-001	0
1.236961968751566E+002	-9.6106008E-002	-1.9593042E-001	0
1.238091968723020E+002	-9.5074326E-002	-1.9600049E-001	0
1.239367968690785E+002	-9.4061755E-002	-1.9596228E-001	0
1.240789968654863E+002	-9.3049183E-002	-1.9592407E-001	0
1.242441968613130E+002	-9.2036612E-002	-1.9594952E-001	0
1.244215968568315E+002	-9.1024041E-002	-1.9587950E-001	0
1.246747968504351E+002	-8.9992359E-002	-1.9598138E-001	0
1.249521968434274E+002	-8.8979788E-002	-1.9586676E-001	0
1.252713968353637E+002	-8.7967217E-002	-1.9601323E-001	0
1.256299968263047E+002	-8.6954646E-002	-1.9584130E-001	0
1.260907968146639E+002	-8.5942067E-002	-1.9584766E-001	0
1.266217968012497E+002	-8.4929496E-002	-1.9597502E-001	0
1.272635967850365E+002	-8.3916925E-002	-1.9591771E-001	0
1.280357967655291E+002	-8.2904354E-002	-1.9586040E-001	0
1.289667967420100E+002	-8.1891783E-002	-1.9591133E-001	0
1.301169967129536E+002	-8.0879204E-002	-1.9590497E-001	0
1.317513966716651E+002	-7.9866633E-002	-1.9600049E-001	0
1.336541966235964E+002	-7.8854062E-002	-1.9587950E-001	0
1.363621965551865E+002	-7.7822387E-002	-1.9587950E-001	0
1.399815964637528E+002	-7.6809809E-002	-1.9590497E-001	0
1.448423963409587E+002	-7.5797237E-002	-1.9594316E-001	0
1.498423962146480E+002	-7.5090349E-002	-1.9591133E-001	0
1.548423960883374E+002	-7.4555404E-002	-1.9591133E-001	0
1.598423959620268E+002	-7.4020460E-002	-1.9589861E-001	0
1.648423958357162E+002	-7.3409095E-002	-1.9589861E-001	0
1.698423957094055E+002	-7.2816834E-002	-1.9591133E-001	0
1.748423955830949E+002	-7.2339207E-002	-1.9584766E-001	0
1.798423954567843E+002	-7.1804263E-002	-1.9584766E-001	0
1.848423953304737E+002	-7.1460374E-002	-1.9599412E-001	0
1.898423952041630E+002	-7.1097374E-002	-1.9594952E-001	0
1.948423950778524E+002	-7.0715271E-002	-1.9594316E-001	0
1.998423949515418E+002	-7.0428692E-002	-1.9589861E-001	0
2.048423948252312E+002	-7.0199430E-002	-1.9591771E-001	0
2.098423946989205E+002	-6.9989271E-002	-1.9596864E-001	0
2.148423945726099E+002	-6.9874644E-002	-1.9590497E-001	0
2.198423944462993E+002	-6.9607168E-002	-1.9590497E-001	0
2.248423943199887E+002	-6.9454327E-002	-1.9593681E-001	0
2.298423941936780E+002	-6.9320597E-002	-1.9589223E-001	0
2.348423940673674E+002	-6.9358803E-002	-1.9588587E-001	0
2.398423939410568E+002	-6.9205962E-002	-1.9588587E-001	0
2.448423938147462E+002	-6.9129542E-002	-1.9589861E-001	0
2.498423936884356E+002	-6.9053121E-002	-1.9593681E-001	0
2.548423935621249E+002	-6.8900280E-002	-1.9596864E-001	0
2.598423934358143E+002	-6.9129542E-002	-1.9584130E-001	0
2.648423933095037E+002	-6.8995811E-002	-1.9591133E-001	0
2.698423931831931E+002	-6.8862073E-002	-1.9596228E-001	0
2.748423930568824E+002	-6.9091335E-002	-1.9593681E-001	0
2.798423929305718E+002	-6.8919390E-002	-1.9594316E-001	0
2.848423928042612E+002	-6.8938494E-002	-1.9599412E-001	0
2.898423926779506E+002	-6.9148645E-002	-1.9593681E-001	0
2.948423925516399E+002	-6.9053121E-002	-1.9593042E-001	0
2.998423924253293E+002	-6.9091335E-002	-1.9588587E-001	0
3.048423922990187E+002	-6.9014914E-002	-1.9596864E-001	0
3.098423921727081E+002	-6.9091335E-002	-1.9593681E-001	0
3.148423920463974E+002	-6.9091335E-002	-1.9596864E-001	0
3.198423919200868E+002	-6.9263279E-002	-1.9596864E-001	0
3.248423917937762E+002	-6.9377907E-002	-1.9591771E-001	0
3.298423916674656E+002	-6.9358803E-002	-1.9593681E-001	0
3.348423915411549E+002	-6.9263279E-002	-1.9598775E-001	0
3.398423914148443E+002	-6.9397017E-002	-1.9599412E-001	0
3.448423912885337E+002	-6.9377907E-002	-1.9593681E-001	0
3.498423911622231E+002	-6.9473438E-002	-1.9592407E-001	0
3.548423910359124E+002	-6.9492541E-002	-1.9596228E-001	0
3.598423909096018E+002	-6.9511645E-002	-1.9596864E-001	0
3.648423907832912E+002	-6.9492541E-002	-1.9589861E-001	0
3.698423906569806E+002	-6.9588065E-002	-1.9589223E-001	0
3.748423905306699E+002	-6.9721803E-002	-1.9596228E-001	0
3.798423904043593E+002	-6.9702700E-002	-1.9591771E-001	0
3.848423902780487E+002	-6.9855541E-002	-1.9589861E-001	0
3.898423901517381E+002	-6.9779120E-002	-1.9588587E-001	0
3.948423900254274E+002	-6.9798224E-002	-1.9590497E-001	0
3.998423898991168E+002	-6.9779120E-002	-1.9591771E-001	0
4.048423897728062E+002	-7.0027485E-002	-1.9592407E-001	0
4.098423896464956E+002	-6.9989271E-002	-1.9587950E-001	0
4.148423895201850E+002	-7.0046589E-002	-1.9594316E-001	0
4.198423893938743E+002	-7.0046589E-002	-1.9597502E-001	0
4.248423892675637E+002	-7.0237644E-002	-1.9590497E-001	0
4.298423891412531E+002	-7.0008382E-002	-1.9593042E-001	0
4.348423890149425E+002	-7.0218533E-002	-1.9596228E-001	0
4.398423888886318E+002	-7.0256747E-002	-1.9588587E-001	0
4.448423887623212E+002	-7.0275851E-002	-1.9588587E-001	0
4.498423886360106E+002	-7.0275851E-002	-1.9594316E-001	0
4.548423885097000E+002	-7.0486009E-002	-1.9587313E-001	0
4.598423883833893E+002	-7.0428692E-002	-1.9591771E-001	0
4.648423882570787E+002	-7.0505112E-002	-1.9596864E-001	0
4.698423881307681E+002	-7.0543326E-002	-1.9590497E-001	0
4.748423880044575E+002	-7.0638850E-002	-1.9587950E-001	0
4.798423878781468E+002	-7.0600636E-002	-1.9589861E-001	0
4.848423877518362E+002	-7.0696168E-002	-1.9589223E-001	0
4.898423876255256E+002	-7.0715271E-002	-1.9589223E-001	0
4.948423874992150E+002	-7.0696168E-002	-1.9587950E-001	0
4.998423873729043E+002	-7.0810795E-002	-1.9594952E-001	0
5.048423872465937E+002	-7.0791692E-002	-1.9591771E-001	0
5.098423871202831E+002	-7.0887215E-002	-1.9589223E-001	0
5.148423869939725E+002	-7.0829898E-002	-1.9594316E-001	0
5.198423868676618E+002	-7.0829898E-002	-1.9593681E-001	0
5.248423867413512E+002	-7.0925429E-002	-1.9590497E-001	0
5.298423866150406E+002	-7.0982739E-002	-1.9591771E-001	0
5.348423864887300E+002	-7.0963636E-002	-1.9600049E-001	0
5.398423863624193E+002	-7.1059160E-002	-1.9589223E-001	0
5.448423862361087E+002	-7.1078271E-002	-1.9592407E-001	0
5.498423861097981E+002	-7.1135581E-002	-1.9587950E-001	0
5.548423859834875E+002	-7.1154691E-002	-1.9598775E-001	0
5.598423858571769E+002	-7.1154691E-002	-1.9593042E-001	0
5.648423857308662E+002	-7.1154691E-002	-1.9600049E-001	0
5.698423856045556E+002	-7.1212001E-002	-1.9591771E-001	0
5.748423854782450E+002	-7.1192898E-002	-1.9594952E-001	0
5.798423853519344E+002	-7.1192898E-002	-1.9594316E-001	0
5.848423852256237E+002	-7.1288422E-002	-1.9584766E-001	0
5.898423850993131E+002	-7.1212001E-002	-1.9594952E-001	0
5.948423849730025E+002	-7.1288422E-002	-1.9594952E-001	0
5.998423848466919E+002	-7.1250215E-002	-1.9594952E-001	0
6.048423847203812E+002	-7.1269318E-002	-1.9593042E-001	0
6.098423845940706E+002	-7.1154691E-002	-1.9586040E-001	0
6.148423844677600E+002	-7.1269318E-002	-1.9589861E-001	0
6.198423843414494E+002	-7.1326636E-002	-1.9593681E-001	0
6.248423842151387E+002	-7.1269318E-002	-1.9592407E-001	0
6.298423840888281E+002	-7.1231112E-002	-1.9595590E-001	0
6.348423839625175E+002	-7.1250215E-002	-1.9588587E-001	0
6.398423838362069E+002	-7.1192898E-002	-1.9587950E-001	0
6.448423837098962E+002	-7.1345739E-002	-1.9594952E-001	0
6.498423835835856E+002	-7.1403056E-002	-1.9590497E-001	0
6.548423834572750E+002	-7.1288422E-002	-1.9587950E-001	0
6.598423833309644E+002	-7.1383953E-002	-1.9591133E-001	0
6.648423832046537E+002	-7.1250215E-002	-1.9587950E-001	0
6.698423830783431E+002	-7.1269318E-002	-1.9589861E-001	0
6.748423829520325E+002	-7.1212001E-002	-1.9586040E-001	0
6.798423828257219E+002	-7.1231112E-002	-1.9590497E-001	0
6.848423826994112E+002	-7.1173795E-002	-1.9594316E-001	0
6.898423825731006E+002	-7.1269318E-002	-1.9587313E-001	0
6.948423824467900E+002	-7.1288422E-002	-1.9593042E-001	0
6.998423823204794E+002	-7.1250215E-002	-1.9591133E-001	0
7.048423821941687E+002	-7.1269318E-002	-1.9596864E-001	0
7.098423820678581E+002	-7.1212001E-002	-1.9586040E-001	0
7.148423819415475E+002	-7.1135581E-002	-1.9594316E-001	0
7.198423818152369E+002	-7.1097374E-002	-1.9591771E-001	0
7.248423816889263E+002	-7.1173795E-002	-1.9594316E-001	0
7.298423815626156E+002	-7.1154691E-002	-1.9593681E-001	0
7.348423814363050E+002	-7.1307532E-002	-1.9594316E-001	0
7.398423813099944E+002	-7.1192898E-002	-1.9592407E-001	0
7.448423811836838E+002	-7.1154691E-002	-1.9594952E-001	0
7.498423810573731E+002	-7.1154691E-002	-1.9593042E-001	0
7.548423809310625E+002	-7.1097374E-002	-1.9592407E-001	0
7.598423808047519E+002	-7.1078271E-002	-1.9586040E-001	0
7.648423806784413E+002	-7.1059160E-002	-1.9589223E-001	0
7.698423805521306E+002	-7.1116477E-002	-1.9596864E-001	0
7.748423804258200E+002	-7.1135581E-002	-1.9590497E-001	0
7.798423802995094E+002	-7.1001850E-002	-1.9586676E-001	0
7.848423801731988E+002	-7.1059160E-002	-1.9589861E-001	0
7.898423800468881E+002	-7.1020953E-002	-1.9583492E-001	0
7.948423799205775E+002	-7.1097374E-002	-1.9593042E-001	0
7.998423797942669E+002	-7.1040057E-002	-1.9592407E-001	0
8.048423796679563E+002	-7.1097374E-002	-1.9590497E-001	0
8.098423795416456E+002	-7.0944533E-002	-1.9592407E-001	0
8.148423794153350E+002	-7.0963636E-002	-1.9587950E-001	0
8.198423792890244E+002	-7.0982739E-002	-1.9584766E-001	0
8.248423791627138E+002	-7.1135581E-002	-1.9591133E-001	0
8.298423790364031E+002	-7.0887215E-002	-1.9587950E-001	0
8.348423789100925E+002	-7.0925429E-002	-1.9597502E-001	0
8.398423787837819E+002	-7.0982739E-002	-1.9584766E-001	0
8.448423786574713E+002	-7.0925429E-002	-1.9593681E-001	0
8.498423785311606E+002	-7.0963636E-002	-1.9591133E-001	0
8.548423784048500E+002	-7.1040057E-002	-1.9593042E-001	0
8.598423782785394E+002	-7.0944533E-002	-1.9592407E-001	0
8.648423781522288E+002	-7.0696168E-002	-1.9590497E-001	0
8.698423780259182E+002	-7.0906319E-002	-1.9592407E-001	0
8.748423778996075E+002	-7.0868112E-002	-1.9591133E-001	0
8.798423777732969E+002	-7.0715271E-002	-1.9592407E-001	0
8.848423776469863E+002	-7.0887215E-002	-1.9593681E-001	0
8.898423775206757E+002	-7.0791692E-002	-1.9594316E-001	0
8.948423773943650E+002	-7.0772588E-002	-1.9591133E-001	0
8.998423772680544E+002	-7.0696168E-002	-1.9589861E-001	0
9.048423771417438E+002	-7.0849009E-002	-1.9592407E-001	0
9.098423770154332E+002	-7.0677057E-002	-1.9589223E-001	0
9.148423768891225E+002	-7.0734374E-002	-1.9592407E-001	0
9.198423767628119E+002	-7.0791692E-002	-1.9587313E-001	0
9.248423766365013E+002	-7.0753478E-002	-1.9597502E-001	0
9.298423765101907E+002	-7.0638850E-002	-1.9586676E-001	0
9.348423763838800E+002	-7.0600636E-002	-1.9598775E-001	0
9.398423762575694E+002	-7.0657954E-002	-1.9593681E-001	0
9.448423761312588E+002	-7.0466906E-002	-1.9591771E-001	0
9.498423760049482E+002	-7.0562430E-002	-1.9601323E-001	0
9.548423758786375E+002	-7.0619747E-002	-1.9591771E-001	0
9.598423757523269E+002	-7.0638850E-002	-1.9592407E-001	0
9.648423756260163E+002	-7.0505112E-002	-1.9589861E-001	0
9.698423754997057E+002	-7.0562430E-002	-1.9587313E-001	0
9.748423753733950E+002	-7.0562430E-002	-1.9594952E-001	0
9.798423752470844E+002	-7.0524216E-002	-1.9593681E-001	0
9.848423751207738E+002	-7.0486009E-002	-1.9593042E-001	0
9.898423749944632E+002	-7.0524216E-002	-1.9594952E-001	0
9.948423748681525E+002	-7.0447795E-002	-1.9595590E-001	0
9.998423747418419E+002	-7.0447795E-002	-1.9588587E-001	0
1.004842374615531E+003	-7.0409589E-002	-1.9585401E-001	0
1.009842374489221E+003	-7.0333168E-002	-1.9595590E-001	0
1.014842374362910E+003	-7.0314065E-002	-1.9594316E-001	0
1.019842374236599E+003	-7.0275851E-002	-1.9589223E-001	0
1.024842374110289E+003	-7.0256747E-002	-1.9591133E-001	0
1.029842373983978E+003	-7.0333168E-002	-1.9591771E-001	0
1.034842373857668E+003	-7.0409589E-002	-1.9593042E-001	0
1.039842373731357E+003	-7.0466906E-002	-1.9588587E-001	0
1.044842373605046E+003	-7.0237644E-002	-1.9594316E-001	0
1.049842373478736E+003	-7.0352271E-002	-1.9597502E-001	0
1.054842373352425E+003	-7.0199430E-002	-1.9591133E-001	0
1.059842373226114E+003	-7.0275851E-002	-1.9589861E-001	0
1.064842373099804E+003	-7.0275851E-002	-1.9594316E-001	0
1.069842372973493E+003	-7.0180327E-002	-1.9594952E-001	0
1.074842372847183E+003	-7.0199430E-002	-1.9594316E-001	0
1.079842372720872E+003	-7.0237644E-002	-1.9593042E-001	0
1.084842372594561E+003	-7.0161223E-002	-1.9592407E-001	0
1.089842372468251E+003	-7.0180327E-002	-1.9589223E-001	0
1.094842372341940E+003	-7.0180327E-002	-1.9596228E-001	0
1.099842372215629E+003	-7.0142113E-002	-1.9596864E-001	0
1.104842372089319E+003	-7.0084803E-002	-1.9589223E-001	0
1.109842371963008E+003	-7.0046589E-002	-1.9589861E-001	0
1.114842371836698E+003	-7.0142113E-002	-1.9585401E-001	0
1.119842371710387E+003	-7.0046589E-002	-1.9594316E-001	0
1.124842371584076E+003	-7.0142113E-002	-1.9591133E-001	0
1.129842371457766E+003	-7.0027485E-002	-1.9589223E-001	0
1.134842371331455E+003	-7.0199430E-002	-1.9597502E-001	0
1.139842371205144E+003	-7.0065692E-002	-1.9597502E-001	0
1.144842371078834E+003	-7.0046589E-002	-1.9594952E-001	0
1.149842370952523E+003	-7.0027485E-002	-1.9590497E-001	0
1.154842370826213E+003	-6.9951065E-002	-1.9588587E-001	0
1.159842370699902E+003	-6.9893748E-002	-1.9594952E-001	0
1.164842370573591E+003	-7.0027485E-002	-1.9596864E-001	0
1.169842370447281E+003	-7.0046589E-002	-1.9596864E-001	0
1.174842370320970E+003	-7.0046589E-002	-1.9595590E-001	0
1.179842370194659E+003	-6.9893748E-002	-1.9589861E-001	0
1.184842370068349E+003	-6.9874644E-002	-1.9592407E-001	0
1.189842369942038E+003	-6.9970168E-002	-1.9583492E-001	0
1.194842369815728E+003	-6.9912851E-002	-1.9596228E-001	0
1.199842369689417E+003	-6.9683589E-002	-1.9595590E-001	0
1.204842369563106E+003	-6.9760010E-002	-1.9597502E-001	0
1.209842369436796E+003	-6.9855541E-002	-1.9594952E-001	0
1.214842369310485E+003	-6.9817327E-002	-1.9591133E-001	0
1.219842369184174E+003	-6.9702700E-002	-1.9589861E-001	0
1.224842369057864E+003	-6.9760010E-002	-1.9590497E-001	0
1.229842368931553E+003	-6.9760010E-002	-1.9596228E-001	0
1.234842368805243E+003	-6.9664486E-002	-1.9594316E-001	0
1.239842368678932E+003	-6.9702700E-002	-1.9590497E-001	0
1.244842368552621E+003	-6.9664486E-002	-1.9596864E-001	0
1.249842368426311E+003	-6.9798224E-002	-1.9594316E-001	0
1.254842368300000E+003	-6.9645382E-002	-1.9589861E-001	0
1.259842368173689E+003	-6.9855541E-002	-1.9596864E-001	0
1.264842368047379E+003	-6.9588065E-002	-1.9591771E-001	0
1.269842367921068E+003	-6.9664486E-002	-1.9593042E-001	0
1.274842367794758E+003	-6.9645382E-002	-1.9595590E-001	0
1.279842367668447E+003	-6.9683589E-002	-1.9593681E-001	0
1.284842367542136E+003	-6.9664486E-002	-1.9589861E-001	0
1.289842367415826E+003	-6.9588065E-002	-1.9596864E-001	0
1.294842367289515E+003	-6.9549859E-002	-1.9595590E-001	0
1.299842367163204E+003	-6.9626279E-002	-1.9592407E-001	0
1.304842367036894E+003	-6.9588065E-002	-1.9586040E-001	0
1.309842366910583E+003	-6.9473438E-002	-1.9587950E-001	0
1.314842366784273E+003	-6.9549859E-002	-1.9587313E-001	0
1.319842366657962E+003	-6.9530748E-002	-1.9593042E-001	0
1.324842366531651E+003	-6.9664486E-002	-1.9593042E-001	0
1.329842366405341E+003	-6.9530748E-002	-1.9594952E-001	0
1.334842366279030E+003	-6.9473438E-002	-1.9593681E-001	0
1.339842366152719E+003	-6.9626279E-002	-1.9591771E-001	0
1.344842366026409E+003	-6.9492541E-002	-1.9594952E-001	0
1.349842365900098E+003	-6.9530748E-002	-1.9591133E-001	0
1.354842365773788E+003	-6.9511645E-002	-1.9589223E-001	0
1.359842365647477E+003	-6.9511645E-002	-1.9597502E-001	0
1.364842365521166E+003	-6.9473438E-002	-1.9591133E-001	0
1.369842365394856E+003	-6.9358803E-002	-1.9589223E-001	0
1.374842365268545E+003	-6.9339700E-002	-1.9588587E-001	0
1.379842365142234E+003	-6.9282383E-002	-1.9591133E-001	0
1.384842365015924E+003	-6.9301486E-002	-1.9592407E-001	0
1.389842364889613E+003	-6.9339700E-002	-1.9593681E-001	0
1.394842364763303E+003	-6.9339700E-002	-1.9596864E-001	0
1.399842364636992E+003	-6.9320597E-002	-1.9587313E-001	0
1.404842364510681E+003	-6.9263279E-002	-1.9592407E-001	0
1.409842364384371E+003	-6.9339700E-002	-1.9585401E-001	0
1.414842364258060E+003	-6.9339700E-002	-1.9597502E-001	0
1.419842364131749E+003	-6.9320597E-002	-1.9586040E-001	0
1.424842364005439E+003	-6.9186859E-002	-1.9591771E-001	0
1.429842363879128E+003	-6.9301486E-002	-1.9588587E-001	0
1.434842363752818E+003	-6.9186859E-002	-1.9591771E-001	0
1.439842363626507E+003	-6.9263279E-002	-1.9597502E-001	0
1.444842363500196E+003	-6.9167756E-002	-1.9596228E-001	0
1.449842363373886E+003	-6.9205962E-002	-1.9599412E-001	0
1.454842363247575E+003	-6.9244176E-002	-1.9594316E-001	0
1.459842363121265E+003	-6.9225065E-002	-1.9594316E-001	0
1.464842362994954E+003	-6.9263279E-002	-1.9596228E-001	0
1.469842362868643E+003	-6.9167756E-002	-1.9585401E-001	0
1.474842362742333E+003	-6.9148645E-002	-1.9593042E-001	0
1.479842362616022E+003	-6.9110438E-002	-1.9588587E-001	0
1.484842362489711E+003	-6.9034018E-002	-1.9598138E-001	0
1.489842362363401E+003	-6.8995811E-002	-1.9595590E-001	0
1.494842362237090E+003	-6.9091335E-002	-1.9591771E-001	0
1.499842362110780E+003	-6.9148645E-002	-1.9587950E-001	0
1.504842361984469E+003	-6.8995811E-002	-1.9594316E-001	0
1.509842361858158E+003	-6.9053121E-002	-1.9594316E-001	0
1.514842361731848E+003	-6.8938494E-002	-1.9595590E-001	0
1.519842361605537E+003	-6.8995811E-002	-1.9598138E-001	0
1.524842361479226E+003	-6.8957597E-002	-1.9596228E-001	0
1.529842361352916E+003	-6.8919390E-002	-1.9589861E-001	0
1.534842361226605E+003	-6.8957597E-002	-1.9587313E-001	0
1.539842361100295E+003	-6.8842970E-002	-1.9592407E-001	0
1.544842360973984E+003	-6.8957597E-002	-1.9587950E-001	0
1.549842360847673E+003	-6.8957597E-002	-1.9588587E-001	0
1.554842360721363E+003	-6.8976700E-002	-1.9587313E-001	0
1.559842360595052E+003	-6.8957597E-002	-1.9587950E-001	0
1.564842360468741E+003	-6.8995811E-002	-1.9590497E-001	0
1.569842360342431E+003	-6.8881176E-002	-1.9594952E-001	0
1.574842360216120E+003	-6.9014914E-002	-1.9593681E-001	0
1.579842360089810E+003	-6.8842970E-002	-1.9589861E-001	0
1.584842359963499E+003	-6.8785653E-002	-1.9599412E-001	0
1.589842359837188E+003	-6.8919390E-002	-1.9596228E-001	0
1.594842359710878E+003	-6.8900280E-002	-1.9593042E-001	0
1.599842359584567E+003	-6.8842970E-002	-1.9590497E-001	0
1.604842359458256E+003	-6.8747438E-002	-1.9588587E-001	0
1.609842359331946E+003	-6.8862073E-002	-1.9589223E-001	0
1.614842359205635E+003	-6.8728335E-002	-1.9585401E-001	0
1.619842359079325E+003	-6.8804756E-002	-1.9587950E-001	0
1.624842358953014E+003	-6.8671018E-002	-1.9591133E-001	0
1.629842358826703E+003	-6.8709232E-002	-1.9589223E-001	0
1.634842358700393E+003	-6.8747438E-002	-1.9601323E-001	0
1.639842358574082E+003	-6.8537287E-002	-1.9591133E-001	0
1.644842358447771E+003	-6.8766549E-002	-1.9596864E-001	0
1.649842358321461E+003	-6.8862073E-002	-1.9581582E-001	0
1.654842358195150E+003	-6.8728335E-002	-1.9591771E-001	0
1.659842358068840E+003	-6.8804756E-002	-1.9587950E-001	0
1.664842357942529E+003	-6.8613708E-002	-1.9589223E-001	0
1.669842357816218E+003	-6.8671018E-002	-1.9598138E-001	0
1.674842357689908E+003	-6.8766549E-002	-1.9591771E-001	0
1.679842357563597E+003	-6.8651915E-002	-1.9596228E-001	0
1.684842357437286E+003	-6.8556391E-002	-1.9591133E-001	0
1.689842357310976E+003	-6.8651915E-002	-1.9594316E-001	0
1.694842357184665E+003	-6.8747438E-002	-1.9594316E-001	0
1.699842357058355E+003	-6.8632811E-002	-1.9584766E-001	0
1.704842356932044E+003	-6.8709232E-002	-1.9593681E-001	0
1.709842356805733E+003	-6.8651915E-002	-1.9590497E-001	0
1.714842356679423E+003	-6.8690129E-002	-1.9598138E-001	0
1.719842356553112E+003	-6.8537287E-002	-1.9592407E-001	0
1.724842356426801E+003	-6.8613708E-002	-1.9592407E-001	0
1.729842356300491E+003	-6.8766549E-002	-1.9593681E-001	0
1.734842356174180E+003	-6.8709232E-002	-1.9596864E-001	0
1.739842356047870E+003	-6.8709232E-002	-1.9594316E-001	0
1.744842355921559E+003	-6.8690129E-002	-1.9595590E-001	0
1.749842355795248E+003	-6.8594597E-002	-1.9592407E-001	0
1.754842355668938E+003	-6.8594597E-002	-1.9598138E-001	0
1.759842355542627E+003	-6.8556391E-002	-1.9587950E-001	0
1.764842355416316E+003	-6.8613708E-002	-1.9592407E-001	0
1.769842355290006E+003	-6.8537287E-002	-1.9595590E-001	0
1.774842355163695E+003	-6.8613708E-002	-1.9592407E-001	0
1.779842355037385E+003	-6.8594597E-002	-1.9600049E-001	0
1.784842354911074E+003	-6.8518177E-002	-1.9593042E-001	0
1.789842354784763E+003	-6.8479970E-002	-1.9594316E-001	0
1.794842354658453E+003	-6.8460867E-002	-1.9593681E-001	0
1.799842354532142E+003	-6.8518177E-002	-1.9592407E-001	0
1.804842354405831E+003	-6.8518177E-002	-1.9596228E-001	0
1.809842354279521E+003	-6.8537287E-002	-1.9593681E-001	0
1.814842354153210E+003	-6.8575494E-002	-1.9582856E-001	0
1.819842354026900E+003	-6.8441756E-002	-1.9593042E-001	0
1.824842353900589E+003	-6.8403549E-002	-1.9589223E-001	0
1.829842353774278E+003	-6.8499073E-002	-1.9594316E-001	0
1.834842353647968E+003	-6.8365335E-002	-1.9590497E-001	0
1.839842353521657E+003	-6.8441756E-002	-1.9595590E-001	0
1.844842353395346E+003	-6.8537287E-002	-1.9595590E-001	0
1.849842353269036E+003	-6.8499073E-002	-1.9598775E-001	0
1.854842353142725E+003	-6.8327129E-002	-1.9596864E-001	0
1.859842353016415E+003	-6.8365335E-002	-1.9592407E-001	0
1.864842352890104E+003	-6.8365335E-002	-1.9589223E-001	0
1.869842352763793E+003	-6.8403549E-002	-1.9594952E-001	0
1.874842352637483E+003	-6.8231605E-002	-1.9595590E-001	0
1.879842352511172E+003	-6.8441756E-002	-1.9590497E-001	0
1.884842352384861E+003	-6.8308026E-002	-1.9595590E-001	0
1.889842352258551E+003	-6.8422653E-002	-1.9587950E-001	0
1.894842352132240E+003	-6.8403549E-002	-1.9588587E-001	0
1.899842352005930E+003	-6.8288915E-002	-1.9594316E-001	0
1.904842351879619E+003	-6.8422653E-002	-1.9591771E-001	0
1.909842351753308E+003	-6.8174288E-002	-1.9591771E-001	0
1.914842351626998E+003	-6.8288915E-002	-1.9592407E-001	0
1.919842351500687E+003	-6.8288915E-002	-1.9597502E-001	0
1.921842351450163E+003	-6.8327129E-002	-1.9585401E-001	0