time/s	Ewe/V	I/mA	error	
6.005299848293362E+001	3.0493522E+000	-2.5015004E-002	0
6.014319848065497E+001	8.4715383E-003	-1.0912039E+001	0
6.014399848063476E+001	8.4333420E-003	-1.0858566E+001	0
6.014479848061455E+001	8.4715383E-003	-1.0804395E+001	0
6.014559848059434E+001	8.4715383E-003	-1.0750286E+001	0
6.014639848057413E+001	8.5097346E-003	-1.0695732E+001	0
6.014719848055393E+001	8.4333420E-003	-1.0640476E+001	0
6.014799848053372E+001	8.6052259E-003	-1.0584969E+001	0
6.014879848051351E+001	8.4715383E-003	-1.0529840E+001	0
6.014959848049330E+001	8.4906369E-003	-1.0474458E+001	0
6.015039848047309E+001	8.5288333E-003	-1.0418441E+001	0
6.015119848045288E+001	8.4524406E-003	-1.0361786E+001	0
6.015199848043267E+001	8.5288333E-003	-1.0304875E+001	0
6.015279848041246E+001	8.5097346E-003	-1.0248030E+001	0
6.015359848039225E+001	8.4906369E-003	-1.0191439E+001	0
6.015439848037204E+001	8.5097346E-003	-1.0134148E+001	0
6.015519848035183E+001	8.5288333E-003	-1.0076092E+001	0
6.015599848033162E+001	8.4715383E-003	-1.0018291E+001	0
6.015679848031141E+001	8.4524406E-003	-9.9600449E+000	0
6.015759848029120E+001	8.4524406E-003	-9.9020538E+000	0
6.015839848027099E+001	8.4524406E-003	-9.8445063E+000	0
6.015919848025078E+001	8.4333420E-003	-9.7872791E+000	0
6.015999848023057E+001	8.4715383E-003	-9.7299881E+000	0
6.016079848021036E+001	8.4524406E-003	-9.6721239E+000	0
6.016159848019015E+001	8.5097346E-003	-9.6161051E+000	0
6.016239848016994E+001	8.5288333E-003	-9.5592585E+000	0
6.016319848014973E+001	8.4906369E-003	-9.5029860E+000	0
6.016399848012952E+001	8.4906369E-003	-9.4470310E+000	0
6.016479848010931E+001	8.5861282E-003	-9.3901844E+000	0
6.016559848008910E+001	8.4333420E-003	-9.3349943E+000	0
6.016639848006889E+001	8.5097346E-003	-9.2804403E+000	0
6.016719848004868E+001	8.4142433E-003	-9.2264585E+000	0
6.016799848002847E+001	8.4524406E-003	-9.1723499E+000	0
6.016879848000826E+001	8.4333420E-003	-9.1193237E+000	0
6.016959847998805E+001	8.5479310E-003	-9.0658512E+000	0
6.017039847996784E+001	8.4333420E-003	-9.0129528E+000	0
6.017119847994763E+001	8.5097346E-003	-8.9609442E+000	0
6.017199847992742E+001	8.4142433E-003	-8.9090633E+000	0
6.017279847990721E+001	8.5288333E-003	-8.8577557E+000	0
6.017359847988700E+001	8.5097346E-003	-8.8075943E+000	0
6.017439847986680E+001	8.5288333E-003	-8.7567959E+000	0
6.017539847984153E+001	8.4142433E-003	-8.6946030E+000	0
6.017639847981627E+001	8.4333420E-003	-8.6329823E+000	0
6.017739847979101E+001	8.4333420E-003	-8.5722532E+000	0
6.017839847976575E+001	8.3760470E-003	-8.5119696E+000	0
6.017939847974048E+001	8.4142433E-003	-8.4525137E+000	0
6.018039847971522E+001	8.5097346E-003	-8.3940763E+000	0
6.018139847968996E+001	8.4142433E-003	-8.3367214E+000	0
6.018239847966470E+001	8.4142433E-003	-8.2784748E+000	0
6.018339847963944E+001	8.4906369E-003	-8.2217560E+000	0
6.018439847961417E+001	8.4142433E-003	-8.1651640E+000	0
6.018539847958891E+001	8.3951456E-003	-8.1113100E+000	0
6.018639847956365E+001	8.5288333E-003	-8.0559292E+000	0
6.018739847953839E+001	8.4524406E-003	-8.0028381E+000	0
6.018839847951313E+001	8.4715383E-003	-7.9487934E+000	0
6.018939847948786E+001	8.5097346E-003	-7.8960853E+000	0
6.019039847946260E+001	8.4524406E-003	-7.8438230E+000	0
6.019139847943734E+001	8.4333420E-003	-7.7916875E+000	0
6.019239847941208E+001	8.4906369E-003	-7.7415257E+000	0
6.019339847938681E+001	8.4333420E-003	-7.6891990E+000	0
6.019459847935650E+001	8.4333420E-003	-7.6291060E+000	0
6.019579847932619E+001	8.4715383E-003	-7.5701604E+000	0
6.019679847930092E+001	8.5288333E-003	-7.5200615E+000	0
6.019799847927061E+001	8.5288333E-003	-7.4619427E+000	0
6.019919847924029E+001	8.4906369E-003	-7.4035053E+000	0
6.020039847920998E+001	8.4906369E-003	-7.3468504E+000	0
6.020159847917967E+001	8.4715383E-003	-7.2893043E+000	0
6.020279847914935E+001	8.5670296E-003	-7.2325225E+000	0
6.020399847911904E+001	8.5097346E-003	-7.1775222E+000	0
6.020519847908872E+001	8.4142433E-003	-7.1223316E+000	0
6.020639847905841E+001	8.4524406E-003	-7.0679045E+000	0
6.020759847902809E+001	8.5097346E-003	-7.0130959E+000	0
6.020879847899778E+001	8.3951456E-003	-6.9602604E+000	0
6.020999847896746E+001	8.5479310E-003	-6.9069791E+000	0
6.021119847893715E+001	8.4715383E-003	-6.8542070E+000	0
6.021239847890683E+001	8.4715383E-003	-6.8025174E+000	0
6.021359847887652E+001	8.5097346E-003	-6.7510829E+000	0
6.021479847884621E+001	8.4906369E-003	-6.6999021E+000	0
6.021619847881084E+001	8.6052259E-003	-6.6415281E+000	0
6.021759847877547E+001	8.3569493E-003	-6.5837917E+000	0
6.021899847874010E+001	8.4524406E-003	-6.5261183E+000	0
6.022039847870474E+001	8.4333420E-003	-6.4694624E+000	0
6.022179847866937E+001	8.4715383E-003	-6.4136357E+000	0
6.022319847863400E+001	8.4333420E-003	-6.3583174E+000	0
6.022459847859864E+001	8.3378507E-003	-6.3035717E+000	0
6.022599847856327E+001	8.5097346E-003	-6.2500362E+000	0
6.022739847852790E+001	8.5097346E-003	-6.1981554E+000	0
6.022879847849254E+001	8.3951456E-003	-6.1453843E+000	0
6.023019847845717E+001	8.4715383E-003	-6.0943308E+000	0
6.023159847842180E+001	8.4524406E-003	-6.0436597E+000	0
6.023319847838138E+001	8.5479310E-003	-5.9873228E+000	0
6.023479847834096E+001	8.4906369E-003	-5.9311771E+000	0
6.023639847830054E+001	8.4715383E-003	-5.8772597E+000	0
6.023799847826012E+001	8.4333420E-003	-5.8248696E+000	0
6.023959847821970E+001	8.4715383E-003	-5.7709517E+000	0
6.024119847817929E+001	8.5097346E-003	-5.7200260E+000	0
6.024279847813887E+001	8.3760470E-003	-5.6690369E+000	0
6.024459847809339E+001	8.5479310E-003	-5.6137819E+000	0
6.024639847804792E+001	8.4715383E-003	-5.5598006E+000	0
6.024819847800245E+001	8.5288333E-003	-5.5056291E+000	0
6.024999847795698E+001	8.4142433E-003	-5.4545116E+000	0
6.025179847791151E+001	8.5479310E-003	-5.4036498E+000	0
6.025379847786098E+001	8.5670296E-003	-5.3490319E+000	0
6.025579847781046E+001	8.4524406E-003	-5.2947321E+000	0
6.025779847775993E+001	8.4524406E-003	-5.2430420E+000	0
6.025979847770941E+001	8.4142433E-003	-5.1921163E+000	0
6.026179847765889E+001	8.4333420E-003	-5.1415091E+000	0
6.026399847760331E+001	8.4333420E-003	-5.0893102E+000	0
6.026619847754773E+001	8.4524406E-003	-5.0370474E+000	0
6.026839847749216E+001	8.5670296E-003	-4.9861856E+000	0
6.027079847743153E+001	8.4906369E-003	-4.9316950E+000	0
6.027319847737090E+001	8.5097346E-003	-4.8807693E+000	0
6.027559847731027E+001	8.5288333E-003	-4.8302250E+000	0
6.027819847724459E+001	8.5097346E-003	-4.7761803E+000	0
6.028079847717891E+001	8.5479310E-003	-4.7247453E+000	0
6.028339847711322E+001	8.3951456E-003	-4.6745200E+000	0
6.028619847704249E+001	8.4715383E-003	-4.6216207E+000	0
6.028899847697176E+001	8.3378507E-003	-4.5700583E+000	0
6.029199847689597E+001	8.4906369E-003	-4.5167131E+000	0
6.029499847682018E+001	8.4715383E-003	-4.4651513E+000	0
6.029799847674440E+001	8.5288333E-003	-4.4146070E+000	0
6.030119847666356E+001	8.4715383E-003	-4.3643179E+000	0
6.030439847658272E+001	8.4142433E-003	-4.3132010E+000	0
6.030779847649683E+001	8.4524406E-003	-4.2620206E+000	0
6.031119847641094E+001	8.4333420E-003	-4.2114134E+000	0
6.031479847631999E+001	8.4906369E-003	-4.1604872E+000	0
6.031859847622400E+001	8.4715383E-003	-4.1076517E+000	0
6.032259847612295E+001	8.2996543E-003	-4.0552616E+000	0
6.032659847602190E+001	8.5288333E-003	-4.0029354E+000	0
6.033079847591580E+001	8.4524406E-003	-3.9518824E+000	0
6.033499847580970E+001	8.5097346E-003	-3.9012113E+000	0
6.033939847569854E+001	8.4715383E-003	-3.8493302E+000	0
6.034399847558234E+001	8.4333420E-003	-3.7982137E+000	0
6.034859847546613E+001	8.4142433E-003	-3.7479880E+000	0
6.035339847534487E+001	8.5288333E-003	-3.6968715E+000	0
6.035859847521351E+001	8.4333420E-003	-3.6456273E+000	0
6.036379847508215E+001	8.4333420E-003	-3.5952108E+000	0
6.036919847494573E+001	8.4715383E-003	-3.5443485E+000	0
6.037499847479921E+001	8.4524406E-003	-3.4922769E+000	0
6.038099847464764E+001	8.4524406E-003	-3.4409056E+000	0
6.038699847449607E+001	8.5479310E-003	-3.3901708E+000	0
6.039339847433439E+001	8.4333420E-003	-3.3387995E+000	0
6.039999847416766E+001	8.3569493E-003	-3.2878098E+000	0
6.040679847399588E+001	8.5861282E-003	-3.2374568E+000	0
6.041379847381904E+001	8.3951456E-003	-3.1869130E+000	0
6.042119847363210E+001	8.4906369E-003	-3.1363056E+000	0
6.042899847343506E+001	8.5288333E-003	-3.0846796E+000	0
6.043699847323296E+001	8.5288333E-003	-3.0340719E+000	0
6.044539847302076E+001	8.4524406E-003	-2.9825735E+000	0
6.045419847279845E+001	8.5288333E-003	-2.9317114E+000	0
6.046339847256604E+001	8.4715383E-003	-2.8802762E+000	0
6.047299847232352E+001	8.4524406E-003	-2.8295412E+000	0
6.048279847207596E+001	8.4715383E-003	-2.7788703E+000	0
6.049299847181828E+001	8.5097346E-003	-2.7280717E+000	0
6.050399847154040E+001	8.4333420E-003	-2.6774008E+000	0
6.051519847125746E+001	8.4524406E-003	-2.6266022E+000	0
6.052719847095432E+001	8.4715383E-003	-2.5752306E+000	0
6.053959847064107E+001	8.5479310E-003	-2.5247507E+000	0
6.055279847030761E+001	8.3760470E-003	-2.4741430E+000	0
6.056619846996909E+001	8.4524406E-003	-2.4234719E+000	0
6.058059846960532E+001	8.4333420E-003	-2.3727369E+000	0
6.059559846922639E+001	8.5670296E-003	-2.3226388E+000	0
6.061139846882725E+001	8.4524406E-003	-2.2724133E+000	0
6.062799846840790E+001	8.5288333E-003	-2.2223151E+000	0
6.064559846796328E+001	8.4906369E-003	-2.1720257E+000	0
6.066439846748835E+001	8.5097346E-003	-2.1208453E+000	0
6.068419846698816E+001	8.4524406E-003	-2.0702379E+000	0
6.070539846645261E+001	8.5479310E-003	-2.0201397E+000	0
6.072739846589684E+001	8.3951456E-003	-1.9690228E+000	0
6.075119846529560E+001	8.4715383E-003	-1.9189245E+000	0
6.077639846465900E+001	8.5097346E-003	-1.8684442E+000	0
6.080319846398197E+001	8.5097346E-003	-1.8179641E+000	0
6.083179846325947E+001	8.4906369E-003	-1.7674202E+000	0
6.086179846250161E+001	8.4906369E-003	-1.7172583E+000	0
6.089519846165786E+001	8.5097346E-003	-1.6667143E+000	0
6.093039846076863E+001	8.4715383E-003	-1.6161069E+000	0
6.096799845981877E+001	8.5479310E-003	-1.5658814E+000	0
6.100959845876787E+001	8.4715383E-003	-1.5158468E+000	0
6.105339845766139E+001	8.4142433E-003	-1.4656212E+000	0
6.110199845643365E+001	8.4142433E-003	-1.4155867E+000	0
6.115439845510991E+001	8.4906369E-003	-1.3652974E+000	0
6.121159845366492E+001	8.5670296E-003	-1.3151991E+000	0
6.127499845206330E+001	8.3760470E-003	-1.2647825E+000	0
6.134539845028485E+001	8.4524406E-003	-1.2143025E+000	0
6.142319844831945E+001	8.5097346E-003	-1.1641405E+000	0
6.150959844613681E+001	8.6052259E-003	-1.1138513E+000	0
6.160599844370154E+001	8.4333420E-003	-1.0638167E+000	0
6.171559844093281E+001	8.4142433E-003	-1.0136547E+000	0
6.184019843778515E+001	8.4906369E-003	-9.6323824E-001	0
6.198239843419287E+001	8.5097346E-003	-9.1282165E-001	0
6.214579843006504E+001	8.5861282E-003	-8.6253238E-001	0
6.233819842520461E+001	8.5097346E-003	-8.1211585E-001	0
6.256539841946505E+001	8.5479310E-003	-7.6208133E-001	0
6.283519841264933E+001	8.3760470E-003	-7.1185577E-001	0
6.316099840441893E+001	8.4524406E-003	-6.6182113E-001	0
6.356179839429387E+001	8.3569493E-003	-6.1178654E-001	0
6.405919838172849E+001	8.4906369E-003	-5.6175196E-001	0
6.469879836557084E+001	8.4524406E-003	-5.1165372E-001	0
6.505279835662805E+001	8.4715383E-003	-4.8988292E-001	0
6.505339835659834E+001	8.5288333E-003	-4.8937365E-001	0
6.610699832998216E+001	8.4333420E-003	-4.3932745E-001	0
6.745999829580251E+001	8.5670296E-003	-3.8931236E-001	0
6.941719824635948E+001	8.5670296E-003	-3.3923993E-001	0
7.248659816881991E+001	8.5288333E-003	-2.8919941E-001	0
7.769399803726992E+001	8.5097346E-003	-2.3919067E-001	0
8.779559778208204E+001	8.5861282E-003	-1.8916920E-001	0
1.110595971943840E+002	8.4906369E-003	-1.3916683E-001	0
1.410595964365202E+002	8.7007172E-003	-1.1077040E-001	0
1.710595956786565E+002	8.5288333E-003	-9.4841175E-002	0
2.010595949207927E+002	8.5097346E-003	-8.4130473E-002	0
2.310595941629290E+002	8.4333420E-003	-7.6334514E-002	0
2.610595934050652E+002	8.4142433E-003	-7.0454128E-002	0
2.910595926472015E+002	8.5097346E-003	-6.5757453E-002	0
3.210595918893378E+002	8.5670296E-003	-6.1894473E-002	0
3.510595911314740E+002	8.4906369E-003	-5.8686990E-002	0
3.810595903736103E+002	8.5479310E-003	-5.5937715E-002	0
4.110595896157465E+002	8.4906369E-003	-5.3455736E-002	0
4.410595888578828E+002	8.5097346E-003	-5.1323775E-002	0
4.710595881000190E+002	8.5288333E-003	-4.9064532E-002	0
5.010595873421553E+002	8.4524406E-003	-4.7308058E-002	0
5.310595865842915E+002	8.5097346E-003	-4.5678858E-002	0
5.610595858264278E+002	8.6243246E-003	-4.4544548E-002	0
5.910595850685640E+002	8.4715383E-003	-4.3145701E-002	0
6.210595843107003E+002	8.5097346E-003	-4.2024333E-002	0
6.510595835528366E+002	8.4906369E-003	-4.1046795E-002	0
6.810595827949728E+002	8.5670296E-003	-3.9832514E-002	0
7.110595820371091E+002	8.5097346E-003	-3.8907163E-002	0
7.410595812792453E+002	8.5288333E-003	-3.8114820E-002	0
7.710595805213816E+002	8.5479310E-003	-3.7564319E-002	0
8.010595797635178E+002	8.4906369E-003	-3.7120733E-002	0
8.310595790056541E+002	8.5479310E-003	-3.6298484E-002	0
8.610595782477903E+002	8.5670296E-003	-3.5607334E-002	0
8.910595774899266E+002	8.4142433E-003	-3.4916822E-002	0
9.210595767320629E+002	8.5288333E-003	-3.4335770E-002	0
9.510595759741991E+002	8.5097346E-003	-3.3694901E-002	0
9.810595752163354E+002	8.6625209E-003	-3.3181943E-002	0
1.011059574458472E+003	8.5288333E-003	-3.2644171E-002	0
1.041059573700608E+003	8.4906369E-003	-3.2111492E-002	0
1.071059572942744E+003	8.4715383E-003	-3.1655818E-002	0
1.101059572184880E+003	8.5861282E-003	-3.1242143E-002	0
1.131059571427017E+003	8.5097346E-003	-3.0715829E-002	0
1.161059570669153E+003	8.4524406E-003	-3.0379800E-002	0
1.191059569911289E+003	8.6625209E-003	-2.9941943E-002	0
1.221059569153425E+003	8.4715383E-003	-2.9498998E-002	0
1.251059568395562E+003	8.4333420E-003	-2.9104421E-002	0
1.281059567637698E+003	8.5861282E-003	-2.8776662E-002	0
1.311059566879834E+003	8.5670296E-003	-2.8451454E-002	0
1.341059566121970E+003	8.5479310E-003	-2.8044783E-002	0
1.371059565364107E+003	8.5670296E-003	-2.7690936E-002	0
1.401059564606243E+003	8.6052259E-003	-2.7436368E-002	0
1.431059563848379E+003	8.6052259E-003	-2.7080612E-002	0
1.461059563090515E+003	8.6052259E-003	-2.6857866E-002	0
1.491059562332652E+003	8.4142433E-003	-2.6542204E-002	0
1.521059561574788E+003	8.6625209E-003	-2.6286997E-002	0
1.551059560816924E+003	8.5097346E-003	-2.5992973E-002	0
1.581059560059060E+003	8.5670296E-003	-2.5756860E-002	0
1.611059559301197E+003	8.5288333E-003	-2.5464112E-002	0
1.641059558543333E+003	8.4715383E-003	-2.5361011E-002	0
1.671059557785469E+003	8.5861282E-003	-2.5075257E-002	0
1.701059557027605E+003	8.4715383E-003	-2.4797145E-002	0
1.731059556269742E+003	8.7198159E-003	-2.4438841E-002	0
1.761059555511878E+003	8.5479310E-003	-2.4747506E-002	0
1.791059554754014E+003	8.5479310E-003	-2.4517756E-002	0
1.821059553996151E+003	8.4333420E-003	-2.4290556E-002	0
1.851059553238287E+003	8.4524406E-003	-2.4107268E-002	0
1.881059552480423E+003	8.6052259E-003	-2.3839973E-002	0
1.911059551722559E+003	8.5861282E-003	-2.3733692E-002	0
1.941059550964696E+003	8.5288333E-003	-2.3532582E-002	0
1.971059550206832E+003	8.4906369E-003	-2.3340385E-002	0
2.001059549448968E+003	8.4906369E-003	-2.3129730E-002	0
2.031059548691104E+003	8.5861282E-003	-2.2993537E-002	0
2.061059547933241E+003	8.5479310E-003	-2.2763154E-002	0
2.091059547175377E+003	8.4333420E-003	-2.2610413E-002	0
2.121059546417513E+003	8.5097346E-003	-2.2501586E-002	0
2.151059545659649E+003	8.5479310E-003	-2.2354573E-002	0
2.181059544901786E+003	8.5288333E-003	-2.2177013E-002	0
2.211059544143922E+003	8.5288333E-003	-2.2003271E-002	0
2.241059543386058E+003	8.5479310E-003	-2.1854350E-002	0
2.271059542628194E+003	8.5097346E-003	-2.1725792E-002	0
2.301059541870331E+003	8.5097346E-003	-2.1546325E-002	0
2.331059541112467E+003	8.5670296E-003	-2.2287114E-002	0
2.361059540354603E+003	8.3951456E-003	-2.2003271E-002	0
2.391059539596739E+003	8.4524406E-003	-2.1860076E-002	0
2.421059538838876E+003	8.5861282E-003	-2.1841623E-002	0
2.451059538081012E+003	8.5861282E-003	-2.1665972E-002	0
2.481059537323148E+003	8.4715383E-003	-2.1488409E-002	0
2.511059536565284E+003	8.5288333E-003	-2.1458499E-002	0
2.541059535807421E+003	8.3760470E-003	-2.1265663E-002	0
2.571059535049557E+003	8.4524406E-003	-2.1112923E-002	0
2.601059534291693E+003	8.4906369E-003	-2.1021916E-002	0
2.631059533533829E+003	8.5288333E-003	-2.0868540E-002	0
2.661059532775966E+003	8.5097346E-003	-2.0754619E-002	0
2.691059532018102E+003	8.3951456E-003	-2.0622246E-002	0
2.721059531260238E+003	8.4715383E-003	-2.0567512E-002	0
2.751059530502374E+003	8.4715383E-003	-2.0447230E-002	0
2.781059529744511E+003	8.4715383E-003	-2.0322492E-002	0
2.811059528986647E+003	8.4715383E-003	-2.0154478E-002	0
2.841059528228783E+003	8.6243246E-003	-1.9994738E-002	0
2.871059527470919E+003	8.5097346E-003	-2.0034831E-002	0
2.901059526713056E+003	8.5097346E-003	-2.0013830E-002	0
2.931059525955192E+003	8.5288333E-003	-1.9747170E-002	0
2.961059525197328E+003	8.3951456E-003	-1.9712169E-002	0
2.991059524439464E+003	8.4333420E-003	-1.9632615E-002	0
3.021059523681601E+003	8.5288333E-003	-1.9526334E-002	0
3.051059522923737E+003	8.5097346E-003	-1.9448690E-002	0
3.081059522165873E+003	8.4142433E-003	-1.9386958E-002	0
3.111059521408009E+003	8.5479310E-003	-1.9289587E-002	0
3.141059520650146E+003	8.4524406E-003	-1.9145755E-002	0
3.171059519892282E+003	8.4333420E-003	-1.9036291E-002	0
3.201059519134418E+003	8.5097346E-003	-1.8942103E-002	0
3.231059518376554E+003	8.4524406E-003	-1.8849187E-002	0
3.261059517618691E+003	8.5288333E-003	-1.8746721E-002	0
3.291059516860827E+003	8.4333420E-003	-1.8718082E-002	0
3.321059516102963E+003	8.3760470E-003	-1.8534794E-002	0
3.351059515345100E+003	8.4715383E-003	-1.8480700E-002	0
3.381059514587236E+003	8.4333420E-003	-1.8432332E-002	0
3.411059513829372E+003	8.4715383E-003	-1.9054750E-002	0
3.441059513071508E+003	8.4524406E-003	-1.8811636E-002	0
3.471059512313645E+003	8.5670296E-003	-1.8752448E-002	0
3.501059511555781E+003	8.4715383E-003	-1.8660169E-002	0
3.531059510797917E+003	8.4333420E-003	-1.8750539E-002	0
3.561059510040053E+003	8.4715383E-003	-1.8619439E-002	0
3.591059509282190E+003	8.5097346E-003	-1.8523976E-002	0
3.621059508524326E+003	8.5288333E-003	-1.8468607E-002	0
3.651059507766462E+003	8.5861282E-003	-1.8340051E-002	0
3.681059507008598E+003	8.4906369E-003	-1.8262409E-002	0
3.711059506250735E+003	8.4333420E-003	-1.8203856E-002	0
3.741059505492871E+003	8.5097346E-003	-1.8126851E-002	0
3.771059504735007E+003	8.5861282E-003	-1.8016115E-002	0
3.801059503977143E+003	8.5288333E-003	-1.7941017E-002	0
3.831059503219280E+003	8.4906369E-003	-1.7865920E-002	0
3.861059502461416E+003	8.4333420E-003	-1.7814370E-002	0
3.891059501703552E+003	8.6243246E-003	-1.7741818E-002	0
3.921059500945688E+003	8.4142433E-003	-1.7660992E-002	0
3.951059500187825E+003	8.4906369E-003	-1.7658446E-002	0
3.981059499429961E+003	8.5288333E-003	-1.7550893E-002	0
4.011059498672097E+003	8.4333420E-003	-1.7412154E-002	0
4.041059497914233E+003	8.5288333E-003	-1.7303962E-002	0
4.071059497156370E+003	8.4524406E-003	-1.7387332E-002	0
4.101059496465081E+003	8.4142433E-003	-1.7274687E-002	0
4.131059496101865E+003	8.5288333E-003	-1.7219318E-002	0
4.161059495738649E+003	8.6052259E-003	-1.7151861E-002	0
4.191059495375433E+003	8.4524406E-003	-1.7041760E-002	0
4.221059495012218E+003	8.5097346E-003	-1.6981300E-002	0
4.251059494649002E+003	8.4906369E-003	-1.6973663E-002	0
4.281059494285786E+003	8.4906369E-003	-1.6862288E-002	0
4.311059493922570E+003	8.4906369E-003	-1.6852107E-002	0
4.341059493559354E+003	8.4524406E-003	-1.6760463E-002	0
4.371059493196139E+003	8.5097346E-003	-1.6687276E-002	0
4.401059492832923E+003	8.3951456E-003	-1.6677091E-002	0
4.431059492469707E+003	8.4906369E-003	-1.6644634E-002	0
4.461059492106491E+003	8.5861282E-003	-1.6536443E-002	0
4.491059491743275E+003	8.4333420E-003	-1.6530717E-002	0
4.521059491380060E+003	8.4906369E-003	-1.6427618E-002	0
4.551059491016844E+003	8.5479310E-003	-1.6334062E-002	0
4.581059490653628E+003	8.4906369E-003	-1.6241146E-002	0
4.611059490290412E+003	8.5670296E-003	-1.6286332E-002	0
4.641059489927196E+003	8.4715383E-003	-1.6258329E-002	0
4.671059489563981E+003	8.6052259E-003	-1.6171139E-002	0
4.701059489200765E+003	8.6052259E-003	-1.6181959E-002	0
4.731059488837549E+003	8.4906369E-003	-1.6719094E-002	0
4.761059488474333E+003	8.4906369E-003	-1.6546626E-002	0
4.791059488111117E+003	8.4524406E-003	-1.6521806E-002	0
4.821059487747902E+003	8.5288333E-003	-1.6389431E-002	0
4.851059487384686E+003	8.3951456E-003	-1.6386250E-002	0
4.881059487021470E+003	8.5097346E-003	-1.6414888E-002	0
4.911059486658254E+003	8.4524406E-003	-1.6383704E-002	0
4.941059486295038E+003	8.4524406E-003	-1.6349973E-002	0
4.971059485931823E+003	8.4524406E-003	-1.6249418E-002	0
5.001059485568607E+003	8.4142433E-003	-1.6153956E-002	0
5.031059485205391E+003	8.4906369E-003	-1.6103679E-002	0
5.061059484842175E+003	8.5097346E-003	-1.5994215E-002	0
5.091059484478959E+003	8.4906369E-003	-1.5940119E-002	0
5.121059484115744E+003	8.4715383E-003	-1.5864387E-002	0
5.151059483752528E+003	8.5288333E-003	-1.5817927E-002	0
5.181059483389312E+003	8.5479310E-003	-1.5803928E-002	0
5.211059483026096E+003	8.4715383E-003	-1.5685553E-002	0
5.241059482662880E+003	8.5097346E-003	-1.5698917E-002	0
5.271059482299665E+003	8.5670296E-003	-1.5652459E-002	0
5.301059481936449E+003	8.5097346E-003	-1.5637822E-002	0
5.331059481573233E+003	8.5288333E-003	-1.5619364E-002	0
5.361059481210017E+003	8.5288333E-003	-1.5580543E-002	0
5.391059480846801E+003	8.5479310E-003	-1.5518175E-002	0
5.421059480483586E+003	8.5670296E-003	-1.5500992E-002	0
5.451059480120370E+003	8.4333420E-003	-1.5472990E-002	0
5.481059479757154E+003	8.5288333E-003	-1.5413166E-002	0
5.511059479393938E+003	8.5670296E-003	-1.5390892E-002	0
5.541059479030722E+003	8.4524406E-003	-1.5337433E-002	0
5.571059478667506E+003	8.4142433E-003	-1.5342523E-002	0
5.601059478304291E+003	8.4333420E-003	-1.5174510E-002	0
5.631059477941075E+003	8.5288333E-003	-1.5150325E-002	0
5.661059477577859E+003	8.4524406E-003	-1.5072682E-002	0
5.691059477214643E+003	8.5479310E-003	-1.5026225E-002	0
5.721059476851427E+003	8.4906369E-003	-1.5014770E-002	0
5.751059476488212E+003	8.4906369E-003	-1.5014132E-002	0
5.781059476124996E+003	8.5670296E-003	-1.4982312E-002	0
5.811059475761780E+003	8.5097346E-003	-1.4962582E-002	0
5.841059475398564E+003	8.4142433E-003	-1.4905941E-002	0
5.871059475035348E+003	8.5670296E-003	-1.4877303E-002	0
5.901059474672133E+003	8.4524406E-003	-1.4773566E-002	0
5.931059474308917E+003	8.5288333E-003	-1.4734746E-002	0
5.961059473945701E+003	8.4906369E-003	-1.4704197E-002	0
5.991059473582485E+003	8.4715383E-003	-1.4660921E-002	0
6.021059473219269E+003	8.4333420E-003	-1.4620826E-002	0
6.051059472856054E+003	8.5670296E-003	-1.4551458E-002	0
6.081059472492838E+003	8.5097346E-003	-1.4538729E-002	0
6.111059472129622E+003	8.3760470E-003	-1.4450267E-002	0
6.141059471766406E+003	8.4715383E-003	-1.4456630E-002	0
6.171059471403190E+003	8.3951456E-003	-1.4427355E-002	0
6.201059471039975E+003	8.4333420E-003	-1.4391716E-002	0
6.231059470676759E+003	8.4906369E-003	-1.4296889E-002	0
6.261059470313543E+003	8.4906369E-003	-1.4290525E-002	0
6.291059469950327E+003	8.5479310E-003	-1.4232612E-002	0
6.321059469587111E+003	8.4333420E-003	-1.4249795E-002	0
6.351059469223896E+003	8.5288333E-003	-1.4212883E-002	0
6.381059468860680E+003	8.5097346E-003	-1.4639284E-002	0
6.411059468497464E+003	8.4524406E-003	-1.4503089E-002	0
6.441059468134248E+003	8.3951456E-003	-1.4499269E-002	0
6.471059467771032E+003	8.5288333E-003	-1.4478269E-002	0
6.501059467407817E+003	8.6052259E-003	-1.4501817E-002	0
6.531059467044601E+003	8.4715383E-003	-1.4453448E-002	0
6.561059466681385E+003	8.5097346E-003	-1.4363714E-002	0
6.591059466318169E+003	8.4715383E-003	-1.4336348E-002	0
6.621059465954953E+003	8.4715383E-003	-1.4314709E-002	0
6.651059465591738E+003	8.3951456E-003	-1.4254250E-002	0
6.681059465228522E+003	8.5670296E-003	-1.4239613E-002	0
6.711059464865306E+003	8.4333420E-003	-1.4202699E-002	0
6.741059464502090E+003	8.4906369E-003	-1.4149876E-002	0
6.771059464138874E+003	8.3951456E-003	-1.4123147E-002	0
6.801059463775659E+003	8.6052259E-003	-1.4046777E-002	0
6.831059463412443E+003	8.5288333E-003	-1.3972317E-002	0
6.861059463049227E+003	8.5097346E-003	-1.3981863E-002	0
6.891059462686011E+003	8.4333420E-003	-1.4025140E-002	0
6.921059462322795E+003	8.4715383E-003	-1.3925857E-002	0
6.951059461959579E+003	8.5288333E-003	-1.3947496E-002	0
6.981059461596364E+003	8.4142433E-003	-1.3829760E-002	0
7.011059461233148E+003	8.5288333E-003	-1.3853943E-002	0
7.041059460869932E+003	8.4715383E-003	-1.3903583E-002	0
7.071059460506716E+003	8.5861282E-003	-1.3794119E-002	0
7.101059460143500E+003	8.5670296E-003	-1.3757844E-002	0
7.131059459780285E+003	8.4906369E-003	-1.3671292E-002	0
7.161059459417069E+003	8.4715383E-003	-1.3641380E-002	0
7.191059459053853E+003	8.4906369E-003	-1.3620377E-002	0
7.221059458690637E+003	8.5097346E-003	-1.3610196E-002	0
7.251059458327421E+003	8.5288333E-003	-1.3570737E-002	0
7.281059457964206E+003	8.4142433E-003	-1.3525552E-002	0
7.311059457600990E+003	8.5288333E-003	-1.3490547E-002	0
7.341059457237774E+003	8.4142433E-003	-1.3492458E-002	0
7.371059456874558E+003	8.5097346E-003	-1.3423725E-002	0
7.401059456511342E+003	8.4906369E-003	-1.3431998E-002	0
7.431059456148127E+003	8.5479310E-003	-1.3289441E-002	0
7.461059455784911E+003	8.5670296E-003	-1.3318080E-002	0
7.491059455421695E+003	8.5288333E-003	-1.3350537E-002	0
7.521059455058479E+003	8.4715383E-003	-1.3316170E-002	0
7.551059454695263E+003	8.5097346E-003	-1.3230890E-002	0
7.581059454332048E+003	8.5670296E-003	-1.3202888E-002	0
7.611059453968832E+003	8.5479310E-003	-1.3161520E-002	0
7.641059453605616E+003	8.4524406E-003	-1.3129063E-002	0
7.671059453242400E+003	8.5288333E-003	-1.3119517E-002	0
7.701059452879184E+003	8.4524406E-003	-1.3068603E-002	0
7.731059452515969E+003	8.4906369E-003	-1.3157703E-002	0
7.761059452152753E+003	8.4715383E-003	-1.3098516E-002	0
7.791059451789537E+003	8.4333420E-003	-1.3122062E-002	0
7.821059451426321E+003	8.5097346E-003	-1.3077513E-002	0
7.851059451063105E+003	8.5288333E-003	-1.3035511E-002	0
7.881059450699890E+003	8.4142433E-003	-1.3025964E-002	0
7.911059450336674E+003	8.4715383E-003	-1.2989688E-002	0
7.941059449973458E+003	8.4333420E-003	-1.3465093E-002	0
7.971059449610242E+003	8.5670296E-003	-1.3352446E-002	0
8.001059449247026E+003	8.5479310E-003	-1.3239800E-002	0
8.031059448883811E+003	8.5479310E-003	-1.3241709E-002	0
8.061059448520595E+003	8.5288333E-003	-1.3291351E-002	0
8.091059448157379E+003	8.3951456E-003	-1.3255075E-002	0
8.121059447794163E+003	8.5288333E-003	-1.3218799E-002	0
8.151059447430947E+003	8.5288333E-003	-1.3235983E-002	0
8.181059447067732E+003	8.5861282E-003	-1.3130336E-002	0
8.211059446704501E+003	8.4906369E-003	-1.3116972E-002	0
8.241059446341285E+003	8.4906369E-003	-1.3143064E-002	0
8.271059445978070E+003	8.5097346E-003	-1.3015145E-002	0
8.301059445614854E+003	8.5479310E-003	-1.3060967E-002	0
8.331059445251638E+003	8.5288333E-003	-1.3035511E-002	0
8.361059444888422E+003	8.4906369E-003	-1.2962958E-002	0
8.391059444525206E+003	8.4715383E-003	-1.2920318E-002	0
8.421059444161991E+003	8.5288333E-003	-1.2924138E-002	0
8.451059443798775E+003	8.4333420E-003	-1.2897407E-002	0
8.481059443435559E+003	8.5479310E-003	-1.2879587E-002	0
8.511059443072343E+003	8.6243246E-003	-1.2815310E-002	0
8.541059442709127E+003	8.5288333E-003	-1.2782851E-002	0
8.571059442345912E+003	8.5288333E-003	-1.2737030E-002	0
8.601059441982696E+003	8.5479310E-003	-1.2758031E-002	0
8.631059441619480E+003	8.5670296E-003	-1.2681662E-002	0
8.661059441256264E+003	8.5097346E-003	-1.2636477E-002	0
8.691059440893048E+003	8.5479310E-003	-1.2606564E-002	0
8.721059440529833E+003	8.5288333E-003	-1.2611020E-002	0
8.751059440166617E+003	8.3760470E-003	-1.2612929E-002	0
8.781059439803401E+003	8.3951456E-003	-1.2548652E-002	0
8.811059439440185E+003	8.5670296E-003	-1.2547377E-002	0
8.841059439076969E+003	8.4333420E-003	-1.2491373E-002	0
8.871059438713753E+003	8.4142433E-003	-1.2490736E-002	0
8.901059438350538E+003	8.5097346E-003	-1.2495828E-002	0
8.931059437987322E+003	8.4715383E-003	-1.2425822E-002	0
8.961059437624106E+003	8.5670296E-003	-1.2438551E-002	0
8.991059437260890E+003	8.4142433E-003	-1.2386365E-002	0
9.021059436897674E+003	8.4715383E-003	-1.2294084E-002	0
9.051059436534459E+003	8.4142433E-003	-1.2316994E-002	0
9.081059436171243E+003	8.5288333E-003	-1.2315086E-002	0
9.111059435808027E+003	8.4333420E-003	-1.2291538E-002	0
9.141059435444811E+003	8.4715383E-003	-1.2194802E-002	0
9.171059435081595E+003	8.5097346E-003	-1.2193530E-002	0
9.201059434718380E+003	8.4142433E-003	-1.2168073E-002	0
9.231059434355164E+003	8.5861282E-003	-1.2157254E-002	0
9.261059433991948E+003	8.4333420E-003	-1.2126070E-002	0
9.291059433628732E+003	8.4333420E-003	-1.2119069E-002	0
9.321059433265516E+003	8.4715383E-003	-1.2037608E-002	0
9.351059432902301E+003	8.5097346E-003	-1.2045244E-002	0
9.381059432539085E+003	8.5288333E-003	-1.1989240E-002	0
9.411059432175869E+003	8.4142433E-003	-1.2019152E-002	0
9.441059431812653E+003	8.4906369E-003	-1.1921779E-002	0
9.471059431449437E+003	8.5479310E-003	-1.1937690E-002	0
9.501059431086222E+003	8.5288333E-003	-1.1909052E-002	0
9.531059430723006E+003	8.5288333E-003	-1.1952328E-002	0
9.561059430359790E+003	8.5479310E-003	-1.1900778E-002	0
9.591059429996574E+003	8.4715383E-003	-1.1821226E-002	0
9.621059429633358E+003	8.4524406E-003	-1.1860683E-002	0
9.651059429270143E+003	8.5097346E-003	-1.1864502E-002	0
9.681059428906927E+003	8.4715383E-003	-1.1766493E-002	0
9.711059428543711E+003	8.4715383E-003	-1.1765220E-002	0
9.741059428180495E+003	8.5097346E-003	-1.1720035E-002	0
9.771059427817279E+003	8.4715383E-003	-1.1748037E-002	0
9.801059427454064E+003	8.5097346E-003	-1.2171254E-002	0
9.831059427090848E+003	8.4715383E-003	-1.2050336E-002	0
9.861059426727632E+003	8.4715383E-003	-1.1973329E-002	0
9.891059426364416E+003	8.5861282E-003	-1.1961237E-002	0
9.921059426001200E+003	8.3951456E-003	-1.1900778E-002	0
9.951059425637985E+003	8.5288333E-003	-1.1989876E-002	0
9.981059425274769E+003	8.5097346E-003	-1.1984785E-002	0
1.001105942491155E+004	8.6243246E-003	-1.1902050E-002	0
1.004105942454834E+004	8.4142433E-003	-1.1919233E-002	0
1.007105942418512E+004	8.4333420E-003	-1.1896960E-002	0
1.010105942382191E+004	8.4715383E-003	-1.1896960E-002	0
1.013105942345869E+004	8.5097346E-003	-1.1870230E-002	0
1.016105942309547E+004	8.5670296E-003	-1.1852410E-002	0
1.019105942273226E+004	8.5288333E-003	-1.1819952E-002	0
1.022105942236904E+004	8.5479310E-003	-1.1837136E-002	0
1.025105942200583E+004	8.5670296E-003	-1.1775403E-002	0
1.028105942164261E+004	8.5097346E-003	-1.1758856E-002	0
1.031105942127939E+004	8.5097346E-003	-1.1686305E-002	0
1.034105942091618E+004	8.5861282E-003	-1.1708580E-002	0
1.037105942055296E+004	8.5670296E-003	-1.1682486E-002	0
1.040105942018975E+004	8.4524406E-003	-1.1676759E-002	0
1.043105941982653E+004	8.4142433E-003	-1.1706034E-002	0
1.046105941946332E+004	8.6052259E-003	-1.1672304E-002	0
1.049105941910010E+004	8.4524406E-003	-1.1649393E-002	0
1.052105941873688E+004	8.4524406E-003	-1.1676759E-002	0
1.055105941837367E+004	8.5097346E-003	-1.1674848E-002	0
1.058105941801045E+004	8.4524406E-003	-1.1653847E-002	0
1.061105941764724E+004	8.4715383E-003	-1.1583841E-002	0
1.064105941728402E+004	8.6052259E-003	-1.1581932E-002	0
1.067105941692081E+004	8.5097346E-003	-1.1557112E-002	0
1.070105941655759E+004	8.3760470E-003	-1.1539292E-002	0
1.073105941619437E+004	8.5097346E-003	-1.1513200E-002	0
1.076105941583116E+004	8.5479310E-003	-1.1514472E-002	0
1.079105941546794E+004	8.5670296E-003	-1.1494107E-002	0
1.082105941510473E+004	8.5288333E-003	-1.1471196E-002	0
1.085105941474151E+004	8.5861282E-003	-1.1430465E-002	0
1.088105941437829E+004	8.5479310E-003	-1.1420283E-002	0
1.091105941401508E+004	8.5479310E-003	-1.1410099E-002	0
1.094105941365186E+004	8.5097346E-003	-1.1399281E-002	0
1.097105941328865E+004	8.4333420E-003	-1.1391643E-002	0
1.100105941292543E+004	8.4333420E-003	-1.1368096E-002	0
1.103105941256222E+004	8.4142433E-003	-1.1342003E-002	0
1.106105941219900E+004	8.4906369E-003	-1.1304454E-002	0
1.109105941183578E+004	8.4524406E-003	-1.1301273E-002	0
1.112105941147257E+004	8.4524406E-003	-1.1301909E-002	0
1.115105941110935E+004	8.4906369E-003	-1.1287907E-002	0
1.118105941074614E+004	8.6243246E-003	-1.1249722E-002	0
1.121105941038292E+004	8.5861282E-003	-1.1231266E-002	0
1.124105941001971E+004	8.4715383E-003	-1.1171442E-002	0
1.127105940965649E+004	8.4142433E-003	-1.1208992E-002	0
1.130105940929327E+004	8.5479310E-003	-1.1208992E-002	0
1.133105940893006E+004	8.4715383E-003	-1.1145351E-002	0
1.136105940856684E+004	8.5861282E-003	-1.1021884E-002	0
1.139105940820363E+004	8.4906369E-003	-1.1036523E-002	0
1.142105940784041E+004	8.5861282E-003	-1.1053069E-002	0
1.145105940747719E+004	8.4715383E-003	-1.1485833E-002	0
1.148105940711398E+004	8.5479310E-003	-1.1400553E-002	0
1.151105940675076E+004	8.5479310E-003	-1.1466740E-002	0
1.154105940638755E+004	8.5479310E-003	-1.1361096E-002	0
1.157105940602433E+004	8.4524406E-003	-1.1344548E-002	0
1.160105940566112E+004	8.4142433E-003	-1.1286635E-002	0
1.163105940529790E+004	8.5479310E-003	-1.1357914E-002	0
1.166105940493468E+004	8.5670296E-003	-1.1271996E-002	0
1.169105940457147E+004	8.4524406E-003	-1.1300636E-002	0
1.172105940420825E+004	8.4715383E-003	-1.1219812E-002	0
1.175105940384504E+004	8.4715383E-003	-1.1259268E-002	0
1.178105940348182E+004	8.5479310E-003	-1.1168897E-002	0
1.181105940311860E+004	8.4715383E-003	-1.1168897E-002	0
1.184105940275539E+004	8.5670296E-003	-1.1136440E-002	0
1.187105940239217E+004	8.4142433E-003	-1.1137077E-002	0
1.190105940202896E+004	8.5288333E-003	-1.1128168E-002	0
1.193105940166574E+004	8.5861282E-003	-1.1153623E-002	0
1.196105940130253E+004	8.5288333E-003	-1.1067707E-002	0
1.199105940093931E+004	8.4715383E-003	-1.1075980E-002	0
1.202105940057609E+004	8.4715383E-003	-1.1061979E-002	0
1.205105940021288E+004	8.3569493E-003	-1.1043523E-002	0
1.208105939984966E+004	8.4715383E-003	-1.1025067E-002	0
1.211105939948645E+004	8.5288333E-003	-1.0989428E-002	0
1.214105939912323E+004	8.5097346E-003	-1.0979882E-002	0
1.217105939876002E+004	8.5288333E-003	-1.0944242E-002	0
1.220105939839680E+004	8.4142433E-003	-1.0917513E-002	0
1.223105939803358E+004	8.5097346E-003	-1.0946151E-002	0
1.226105939767037E+004	8.5097346E-003	-1.0914966E-002	0
1.229105939730715E+004	8.5288333E-003	-1.0876781E-002	0
1.232105939694394E+004	8.4906369E-003	-1.0881873E-002	0
1.235105939658072E+004	8.3760470E-003	-1.0834778E-002	0
1.238105939621750E+004	8.4906369E-003	-1.0822686E-002	0
1.241105939585429E+004	8.5861282E-003	-1.0805503E-002	0
1.244105939549107E+004	8.4906369E-003	-1.0795320E-002	0
1.247105939512786E+004	8.5288333E-003	-1.0729133E-002	0
1.250105939476464E+004	8.4906369E-003	-1.0733588E-002	0
1.253105939440143E+004	8.4333420E-003	-1.0740588E-002	0
1.256105939403821E+004	8.3951456E-003	-1.0738043E-002	0
1.259105939367499E+004	8.4715383E-003	-1.0713859E-002	0
1.262105939331178E+004	8.5288333E-003	-1.0701766E-002	0
1.265105939294856E+004	8.4524406E-003	-1.0662945E-002	0
1.268105939258535E+004	8.4715383E-003	-1.0680129E-002	0
1.271105939222213E+004	8.5288333E-003	-1.0664854E-002	0
1.274105939185891E+004	8.4715383E-003	-1.0645126E-002	0
1.277105939149570E+004	8.5288333E-003	-1.0638761E-002	0
1.280105939113248E+004	8.4524406E-003	-1.0610759E-002	0
1.283105939076927E+004	8.4142433E-003	-1.0614578E-002	0
1.286105939040605E+004	8.3760470E-003	-1.0556026E-002	0
1.289105939004284E+004	8.5097346E-003	-1.0533753E-002	0
1.292105938967962E+004	8.3951456E-003	-1.0508295E-002	0
1.295105938931640E+004	8.5097346E-003	-1.0487930E-002	0
1.298105938895319E+004	8.4715383E-003	-1.0488567E-002	0
1.301105938858997E+004	8.4333420E-003	-1.0479657E-002	0
1.304105938822676E+004	8.4906369E-003	-1.0467566E-002	0
1.307105938786354E+004	8.4333420E-003	-1.0442109E-002	0
1.310105938750033E+004	8.6052259E-003	-1.0394378E-002	0
1.313105938713711E+004	8.4333420E-003	-1.0414742E-002	0
1.316105938677389E+004	8.5861282E-003	-1.0400742E-002	0
1.319105938641068E+004	8.4524406E-003	-1.0330736E-002	0
1.322105938604746E+004	8.4906369E-003	-1.0309733E-002	0
1.325105938568425E+004	8.5097346E-003	-1.0383558E-002	0
1.328105938532103E+004	8.4524406E-003	-1.0339009E-002	0
1.331105938495781E+004	8.4333420E-003	-1.0325007E-002	0
1.334105938459460E+004	8.3569493E-003	-1.0263274E-002	0
1.337105938423138E+004	8.5097346E-003	-1.0662310E-002	0
1.340105938386817E+004	8.5479310E-003	-1.0568756E-002	0
1.343105938350495E+004	8.4906369E-003	-1.0550299E-002	0
1.346105938314174E+004	8.4333420E-003	-1.0536299E-002	0
1.349105938277852E+004	8.5288333E-003	-1.0583393E-002	0
1.352105938241530E+004	8.5097346E-003	-1.0567483E-002	0
1.355105938205209E+004	8.5288333E-003	-1.0500658E-002	0
1.358105938168887E+004	8.4142433E-003	-1.0494295E-002	0
1.361105938132566E+004	8.5288333E-003	-1.0472019E-002	0
1.364105938096244E+004	8.4333420E-003	-1.0475202E-002	0
1.367105938059922E+004	8.4906369E-003	-1.0451018E-002	0
1.370105938023601E+004	8.6052259E-003	-1.0424925E-002	0
1.373105937987279E+004	8.4906369E-003	-1.0443380E-002	0
1.376105937950958E+004	8.4715383E-003	-1.0418560E-002	0
1.379105937914636E+004	8.5288333E-003	-1.0346645E-002	0
1.382105937878315E+004	8.4715383E-003	-1.0301461E-002	0
1.385105937841993E+004	8.5288333E-003	-1.0330099E-002	0
1.388105937805671E+004	8.4906369E-003	-1.0320553E-002	0
1.391105937769350E+004	8.4524406E-003	-1.0347919E-002	0
1.394105937733028E+004	8.4333420E-003	-1.0272820E-002	0
1.397105937696707E+004	8.4524406E-003	-1.0307188E-002	0
1.400105937660385E+004	8.4524406E-003	-1.0269639E-002	0
1.403105937624064E+004	8.6243246E-003	-1.0281094E-002	0
1.406105937587742E+004	8.4524406E-003	-1.0290640E-002	0
1.409105937551420E+004	8.4715383E-003	-1.0211725E-002	0
1.412105937515099E+004	8.5097346E-003	-1.0210452E-002	0
1.415105937478777E+004	8.4524406E-003	-1.0202815E-002	0
1.418105937442456E+004	8.4142433E-003	-1.0169085E-002	0
1.421105937406134E+004	8.5097346E-003	-1.0169721E-002	0
1.424105937369812E+004	8.5097346E-003	-1.0132810E-002	0
1.427105937333491E+004	8.5288333E-003	-1.0102897E-002	0
1.430105937297169E+004	8.5670296E-003	-1.0134718E-002	0
1.433105937260848E+004	8.5097346E-003	-1.0074258E-002	0
1.436105937224526E+004	8.5479310E-003	-1.0118171E-002	0
1.439105937188205E+004	8.5670296E-003	-1.0052620E-002	0
1.442105937151883E+004	8.4906369E-003	-1.0034801E-002	0
1.445105937115561E+004	8.4715383E-003	-1.0048802E-002	0
1.448105937079240E+004	8.5861282E-003	-1.0016981E-002	0
1.451105937042918E+004	8.4906369E-003	-1.0046256E-002	0
1.454105937006597E+004	8.4906369E-003	-1.0027164E-002	0
1.457105936970275E+004	8.4715383E-003	-9.9717956E-003	0
1.460105936933953E+004	8.4906369E-003	-9.9940700E-003	0
1.463105936897632E+004	8.4906369E-003	-9.9590672E-003	0
1.466105936861310E+004	8.5670296E-003	-9.9393381E-003	0
1.469105936824989E+004	8.5288333E-003	-9.9259736E-003	0
1.472105936788667E+004	8.5288333E-003	-9.9412473E-003	0
1.475105936752346E+004	8.5861282E-003	-9.8966984E-003	0
1.478105936716024E+004	8.5097346E-003	-9.8629678E-003	0
1.481105936679702E+004	8.5670296E-003	-9.8966984E-003	0
1.484105936643381E+004	8.5097346E-003	-9.8814238E-003	0
1.487105936607059E+004	8.4715383E-003	-9.8356018E-003	0
1.490105936570738E+004	8.5288333E-003	-9.8362388E-003	0
1.491111136558568E+004	8.5861282E-003	-9.7725959E-003	0
1.491111156558567E+004	8.5670296E-003	-9.8362388E-003	0