time/s	Ewe/V	I/mA	error	
4.322230916886160E+004	-5.6976039E-004	-2.4037570E-002	1
4.322231056886166E+004	-1.7724943E-003	-2.4038015E-002	0
4.322231276886174E+004	-2.8034090E-003	-2.4037251E-002	0
4.322231496886164E+004	-3.8725056E-003	-2.4037061E-002	0
4.322231836886168E+004	-4.9225115E-003	-2.4036679E-002	0
4.322232196886174E+004	-6.0106991E-003	-2.4037505E-002	0
4.322232616886171E+004	-7.0416140E-003	-2.4037633E-002	0
4.322233036886167E+004	-8.0534378E-003	-2.4037443E-002	0
4.322233416886162E+004	-9.1798073E-003	-2.4038142E-002	0
4.322233996886175E+004	-1.0248904E-002	-2.4036869E-002	0
4.322234556886170E+004	-1.1260727E-002	-2.4037251E-002	0
4.322235096886172E+004	-1.2272552E-002	-2.4037886E-002	0
4.322235676886176E+004	-1.3284375E-002	-2.4037825E-002	0
4.322236276886181E+004	-1.4334382E-002	-2.4037251E-002	0
4.322236936886178E+004	-1.5403477E-002	-2.4037123E-002	0
4.322237676886178E+004	-1.6548939E-002	-2.4037886E-002	0
4.322238556886185E+004	-1.7770763E-002	-2.4037188E-002	0
4.322239376886177E+004	-1.8839860E-002	-2.4037633E-002	0
4.322240136886179E+004	-1.9851685E-002	-2.4037950E-002	0
4.322240976886183E+004	-2.0958962E-002	-2.4037315E-002	0
4.322241836886184E+004	-2.1970786E-002	-2.4037505E-002	0
4.322242696886184E+004	-2.3001701E-002	-2.4037696E-002	0
4.322243656886194E+004	-2.4128070E-002	-2.4037633E-002	0
4.322244636886194E+004	-2.5139894E-002	-2.4037378E-002	0
4.322245556886191E+004	-2.6189901E-002	-2.4037950E-002	0
4.322246556886198E+004	-2.7201723E-002	-2.4037378E-002	0
4.322247636886196E+004	-2.8213548E-002	-2.4037315E-002	0
4.322248596886196E+004	-2.9225372E-002	-2.4037378E-002	0
4.322249636886208E+004	-3.0256286E-002	-2.4037251E-002	0
4.322250796886203E+004	-3.1287201E-002	-2.4037570E-002	0
4.322251836886199E+004	-3.2299023E-002	-2.4037570E-002	0
4.322253136886211E+004	-3.3349030E-002	-2.4037825E-002	0
4.322254296886208E+004	-3.4360852E-002	-2.4037886E-002	0
4.322255596886214E+004	-3.5391767E-002	-2.4037505E-002	0
4.322256896886218E+004	-3.6518138E-002	-2.4037760E-002	0
4.322258296886220E+004	-3.7568145E-002	-2.4036741E-002	0
4.322259616886219E+004	-3.8579967E-002	-2.4037505E-002	0
4.322260936886221E+004	-3.9649066E-002	-2.4037505E-002	0
4.322262456886226E+004	-4.0699068E-002	-2.4037188E-002	0
4.322263896886224E+004	-4.1787259E-002	-2.4036933E-002	0
4.322265436886228E+004	-4.2818174E-002	-2.4037315E-002	0
4.322266956886230E+004	-4.3829996E-002	-2.4037886E-002	0
4.322268516886234E+004	-4.4956367E-002	-2.4037315E-002	0
4.322270236886234E+004	-4.5968190E-002	-2.4037378E-002	0
4.322271896886239E+004	-4.7113650E-002	-2.4037825E-002	0
4.322273716886248E+004	-4.8125476E-002	-2.4037633E-002	0
4.322275416886256E+004	-4.9137298E-002	-2.4037123E-002	0
4.322277036886249E+004	-5.0168213E-002	-2.4037061E-002	0
4.322278836886259E+004	-5.1180039E-002	-2.4037570E-002	0
4.322280716886255E+004	-5.2230041E-002	-2.4037061E-002	0
4.322282596886263E+004	-5.3241868E-002	-2.4037570E-002	0
4.322284376886263E+004	-5.4310963E-002	-2.4037760E-002	0
4.322286376886276E+004	-5.5322789E-002	-2.4037378E-002	0
4.322288536886277E+004	-5.6410976E-002	-2.4037570E-002	0
4.322290656886282E+004	-5.7422798E-002	-2.4037886E-002	0
4.322292496886279E+004	-5.8453713E-002	-2.4037505E-002	0
4.322294816886284E+004	-5.9560992E-002	-2.4037950E-002	0
4.322297156886291E+004	-6.0591906E-002	-2.4037251E-002	0
4.322299536886299E+004	-6.1641913E-002	-2.4037696E-002	0
4.322301636886300E+004	-6.2672824E-002	-2.4036933E-002	0
4.322304016886302E+004	-6.3684650E-002	-2.4036996E-002	0
4.322306396886311E+004	-6.4696476E-002	-2.4037443E-002	0
4.322308776886307E+004	-6.5727390E-002	-2.4037825E-002	0
4.322311256886320E+004	-6.6739209E-002	-2.4037633E-002	0
4.322313856886327E+004	-6.7751035E-002	-2.4037188E-002	0
4.322316416886330E+004	-6.8762861E-002	-2.4037633E-002	0
4.322318716886337E+004	-6.9774680E-002	-2.4037570E-002	0
4.322321656886337E+004	-7.0843779E-002	-2.4037505E-002	0
4.322324696886347E+004	-7.1931966E-002	-2.4037696E-002	0
4.322327456886345E+004	-7.2943792E-002	-2.4037633E-002	0
4.322330476886357E+004	-7.3955618E-002	-2.4037570E-002	0
4.322333336886356E+004	-7.4986532E-002	-2.4036869E-002	0
4.322336396886368E+004	-7.6055624E-002	-2.4037251E-002	0
4.322339556886361E+004	-7.7067450E-002	-2.4037696E-002	0
4.322342776886374E+004	-7.8117453E-002	-2.4036996E-002	0
4.322346236886375E+004	-7.9148367E-002	-2.4037188E-002	0
4.322349576886394E+004	-8.0179289E-002	-2.4037315E-002	0
4.322352976886393E+004	-8.1191108E-002	-2.4037760E-002	0
4.322356316886406E+004	-8.2260206E-002	-2.4037505E-002	0
4.322359836886410E+004	-8.3329305E-002	-2.4037633E-002	0
4.322363756886421E+004	-8.4360220E-002	-2.4037825E-002	0
4.322367356886424E+004	-8.5372038E-002	-2.4037570E-002	0
4.322371436886431E+004	-8.6383864E-002	-2.4037378E-002	0
4.322375396886442E+004	-8.7395690E-002	-2.4037251E-002	0
4.322379256886442E+004	-8.8483877E-002	-2.4036806E-002	0
4.322383736886445E+004	-8.9495704E-002	-2.4037315E-002	0
4.322387816886464E+004	-9.0507522E-002	-2.4037760E-002	0
4.322392256886471E+004	-9.1576621E-002	-2.4037696E-002	0
4.322397136886476E+004	-9.2607535E-002	-2.4037696E-002	0
4.322401816886477E+004	-9.3619362E-002	-2.4037696E-002	0
4.322406556886493E+004	-9.4631180E-002	-2.4037315E-002	0
4.322411376886509E+004	-9.5643006E-002	-2.4037378E-002	0
4.322416816886510E+004	-9.6654832E-002	-2.4037315E-002	0
4.322422916886525E+004	-9.7685747E-002	-2.4037061E-002	0
4.322429196886532E+004	-9.8697565E-002	-2.4037505E-002	0
4.322435916886547E+004	-9.9728487E-002	-2.4036551E-002	0
4.322443656886567E+004	-1.0077849E-001	-2.4037315E-002	0
4.322455636886589E+004	-1.0179032E-001	-2.4037633E-002	0
4.322494936886660E+004	-1.0077849E-001	-2.4036869E-002	0
4.322503136886677E+004	-9.9728487E-002	-2.4037886E-002	0
4.322509376886682E+004	-9.8716661E-002	-2.4037251E-002	0
4.322514936886699E+004	-9.7647563E-002	-2.4037696E-002	0
4.322520076886704E+004	-9.6635737E-002	-2.4037378E-002	0
4.322524696886720E+004	-9.5547549E-002	-2.4037188E-002	0
4.322529516886722E+004	-9.4516635E-002	-2.4037570E-002	0
4.322533956886735E+004	-9.3504816E-002	-2.4037950E-002	0
4.322538036886742E+004	-9.2435718E-002	-2.4037315E-002	0
4.322542416886741E+004	-9.1423891E-002	-2.4037886E-002	0
4.322546516886758E+004	-9.0412065E-002	-2.4036996E-002	0
4.322550636886759E+004	-8.9400247E-002	-2.4036551E-002	0
4.322554736886773E+004	-8.8388421E-002	-2.4037633E-002	0
4.322559136886778E+004	-8.7357506E-002	-2.4037570E-002	0
4.322562976886792E+004	-8.6345680E-002	-2.4036996E-002	0
4.322567236886796E+004	-8.5333861E-002	-2.4037188E-002	0
4.322571516886805E+004	-8.4283851E-002	-2.4037696E-002	0
4.322576096886816E+004	-8.3252937E-002	-2.4037061E-002	0
4.322580856886817E+004	-8.2202934E-002	-2.4037760E-002	0
4.322585156886824E+004	-8.1191108E-002	-2.4037443E-002	0
4.322589936886838E+004	-8.0160193E-002	-2.4037315E-002	0
4.322595296886841E+004	-7.9148367E-002	-2.4037251E-002	0
4.322600136886851E+004	-7.8098364E-002	-2.4037378E-002	0
4.322605456886870E+004	-7.7048361E-002	-2.4037505E-002	0
4.322610956886872E+004	-7.6036535E-002	-2.4037315E-002	0
4.322616636886878E+004	-7.4967436E-002	-2.4038015E-002	0
4.322622836886893E+004	-7.3936522E-002	-2.4037505E-002	0
4.322629516886908E+004	-7.2867431E-002	-2.4037378E-002	0
4.322636376886928E+004	-7.1855605E-002	-2.4037251E-002	0
4.322642716886930E+004	-7.0786506E-002	-2.4036996E-002	0
4.322650696886948E+004	-6.9755591E-002	-2.4036996E-002	0
4.322658956886968E+004	-6.8724677E-002	-2.4037251E-002	0
4.322667816886981E+004	-6.7712851E-002	-2.4037061E-002	0
4.322677016886993E+004	-6.6701032E-002	-2.4037825E-002	0
4.322686576887011E+004	-6.5670118E-002	-2.4037505E-002	0
4.322696796887030E+004	-6.4658292E-002	-2.4037886E-002	0
4.322707816887050E+004	-6.3627377E-002	-2.4037378E-002	0
4.322721116887075E+004	-6.2615551E-002	-2.4036869E-002	0
4.322733816887101E+004	-6.1603732E-002	-2.4037123E-002	0
4.322750356887141E+004	-6.0496453E-002	-2.4037696E-002	0
4.322767976887172E+004	-5.9465539E-002	-2.4037188E-002	0
4.322788796887209E+004	-5.8453713E-002	-2.4037315E-002	0
4.322806196887244E+004	-5.7441890E-002	-2.4037886E-002	0
4.322834236887284E+004	-5.6410976E-002	-2.4037188E-002	0
4.322863656887352E+004	-5.5399150E-002	-2.4037570E-002	0
4.322890376887389E+004	-5.4387327E-002	-2.4037315E-002	0
4.322928996887471E+004	-5.3375505E-002	-2.4037188E-002	0
4.322972316887550E+004	-5.2344590E-002	-2.4037188E-002	0
4.323020956887631E+004	-5.1313672E-002	-2.4036996E-002	0
4.323080536887754E+004	-5.0282758E-002	-2.4037633E-002	0
4.323158836887893E+004	-4.9270935E-002	-2.4037123E-002	0
4.323259556888079E+004	-4.8259113E-002	-2.4037696E-002	0
4.323359836888273E+004	-4.7209106E-002	-2.4037378E-002	0
4.323507976888539E+004	-4.6178192E-002	-2.4037505E-002	0
4.323706596888916E+004	-4.5166366E-002	-2.4037570E-002	0
4.323923756889324E+004	-4.4154543E-002	-2.4037696E-002	0
4.324186976889812E+004	-4.3142721E-002	-2.4037696E-002	0
4.324551576890491E+004	-4.2111807E-002	-2.4037315E-002	0
4.324965236891256E+004	-4.1099980E-002	-2.4036996E-002	0
4.325465236892187E+004	-4.0298160E-002	-2.4037443E-002	0
4.325855996892916E+004	-3.9286334E-002	-2.4037696E-002	0
4.326355996893847E+004	-3.8751788E-002	-2.4037825E-002	0
4.326855996894778E+004	-3.8102694E-002	-2.4037570E-002	0
4.327346216895687E+004	-3.7090868E-002	-2.4037950E-002	0
4.327846216896619E+004	-3.6651775E-002	-2.4036933E-002	0
4.328346216897550E+004	-3.6155410E-002	-2.4036679E-002	0
4.328846216898481E+004	-3.5525404E-002	-2.4037188E-002	0
4.329346216899413E+004	-3.4914494E-002	-2.4036616E-002	0
4.329846216900344E+004	-3.4341764E-002	-2.4037696E-002	0
4.330346216901275E+004	-3.3826306E-002	-2.4038332E-002	0
4.330846216902207E+004	-3.3310849E-002	-2.4037570E-002	0
4.331346216903138E+004	-3.2909937E-002	-2.4037378E-002	0
4.331846216904069E+004	-3.2432660E-002	-2.4037825E-002	0
4.332346216905001E+004	-3.2108113E-002	-2.4037633E-002	0
4.332846216905932E+004	-3.1802658E-002	-2.4037760E-002	0
4.333346216906863E+004	-3.1363565E-002	-2.4037633E-002	0
4.333846216907795E+004	-3.1134473E-002	-2.4036806E-002	0
4.334346216908726E+004	-3.0752653E-002	-2.4036933E-002	0
4.334846216909657E+004	-3.0733561E-002	-2.4038205E-002	0
4.335346216910589E+004	-3.0523561E-002	-2.4037570E-002	0
4.335846216911520E+004	-3.0313559E-002	-2.4037570E-002	0
4.336346216912451E+004	-3.0084467E-002	-2.4038142E-002	0
4.336846216913383E+004	-2.9893557E-002	-2.4037570E-002	0
4.337346216914314E+004	-2.9798102E-002	-2.4036996E-002	0
4.337846216915245E+004	-2.9626284E-002	-2.4036996E-002	0
4.338346216916176E+004	-2.9530827E-002	-2.4037505E-002	0
4.338846216917108E+004	-2.9397191E-002	-2.4037505E-002	0
4.339346216918039E+004	-2.9263554E-002	-2.4037378E-002	0
4.339846216918970E+004	-2.9187189E-002	-2.4036933E-002	0
4.340346216919902E+004	-2.9053552E-002	-2.4037696E-002	0
4.340846216920833E+004	-2.9015370E-002	-2.4037123E-002	0
4.341346216921764E+004	-2.8996279E-002	-2.4036933E-002	0
4.341846216922696E+004	-2.8786277E-002	-2.4037378E-002	0
4.342346216923627E+004	-2.8824460E-002	-2.4037443E-002	0
4.342846216924558E+004	-2.8633550E-002	-2.4037570E-002	0
4.343346216925490E+004	-2.8671732E-002	-2.4037315E-002	0
4.343846216926421E+004	-2.8519005E-002	-2.4037505E-002	0
4.344346216927352E+004	-2.8366275E-002	-2.4036933E-002	0
4.344846216928284E+004	-2.8309003E-002	-2.4037760E-002	0
4.345346216929215E+004	-2.8423550E-002	-2.4037760E-002	0
4.345846216930146E+004	-2.8385367E-002	-2.4036996E-002	0
4.346346216931078E+004	-2.8289912E-002	-2.4037633E-002	0
4.346846216932009E+004	-2.8328095E-002	-2.4037251E-002	0
4.347346216932940E+004	-2.8137185E-002	-2.4037123E-002	0
4.347846216933872E+004	-2.8175365E-002	-2.4037188E-002	0
4.348346216934803E+004	-2.8099002E-002	-2.4037696E-002	0
4.348846216935734E+004	-2.7984455E-002	-2.4037570E-002	0
4.349346216936666E+004	-2.8041730E-002	-2.4037378E-002	0
4.349846216937597E+004	-2.7908092E-002	-2.4037443E-002	0
4.350346216938528E+004	-2.7965365E-002	-2.4037378E-002	0
4.350846216939460E+004	-2.8022638E-002	-2.4037443E-002	0
4.351346216940391E+004	-2.7889000E-002	-2.4037633E-002	0
4.351846216941322E+004	-2.7908092E-002	-2.4037505E-002	0
4.352346216942254E+004	-2.7889000E-002	-2.4036869E-002	0
4.352846216943185E+004	-2.7640818E-002	-2.4036933E-002	0
4.353346216944116E+004	-2.7621726E-002	-2.4037505E-002	0
4.353846216945047E+004	-2.7755363E-002	-2.4037315E-002	0
4.354346216945979E+004	-2.7602635E-002	-2.4037378E-002	0
4.354846216946910E+004	-2.7488090E-002	-2.4037443E-002	0
4.355346216947841E+004	-2.7526271E-002	-2.4037378E-002	0
4.355846216948773E+004	-2.7507180E-002	-2.4037315E-002	0
4.356346216949704E+004	-2.7564453E-002	-2.4037123E-002	0
4.356846216950635E+004	-2.7354453E-002	-2.4037570E-002	0
4.357346216951567E+004	-2.7468998E-002	-2.4036996E-002	0
4.357846216952498E+004	-2.7449908E-002	-2.4037061E-002	0
4.358346216953429E+004	-2.7354453E-002	-2.4037633E-002	0
4.358846216954361E+004	-2.7392635E-002	-2.4037760E-002	0
4.359346216955292E+004	-2.7239906E-002	-2.4037505E-002	0
4.359846216956223E+004	-2.7430816E-002	-2.4037315E-002	0
4.360346216957155E+004	-2.7392635E-002	-2.4037633E-002	0
4.360846216958086E+004	-2.7278088E-002	-2.4037570E-002	0
4.361346216959017E+004	-2.7239906E-002	-2.4037443E-002	0
4.361846216959949E+004	-2.7297180E-002	-2.4037570E-002	0
4.362346216960880E+004	-2.7278088E-002	-2.4037443E-002	0
4.362846216961811E+004	-2.7239906E-002	-2.4037378E-002	0
4.363346216962743E+004	-2.7182633E-002	-2.4037378E-002	0
4.363846216963674E+004	-2.7144451E-002	-2.4037378E-002	0
4.364346216964605E+004	-2.7068088E-002	-2.4037251E-002	0
4.364846216965537E+004	-2.7029905E-002	-2.4037315E-002	0
4.365346216966468E+004	-2.7106268E-002	-2.4038076E-002	0
4.365846216967399E+004	-2.7087178E-002	-2.4037505E-002	0
4.366346216968331E+004	-2.7182633E-002	-2.4037570E-002	0
4.366846216969262E+004	-2.7106268E-002	-2.4037505E-002	0
4.367346216970193E+004	-2.7068088E-002	-2.4036996E-002	0
4.367846216971125E+004	-2.6915358E-002	-2.4037188E-002	0
4.368346216972056E+004	-2.6991723E-002	-2.4037505E-002	0
4.368846216972987E+004	-2.7048996E-002	-2.4037188E-002	0
4.369346216973918E+004	-2.7029905E-002	-2.4037315E-002	0
4.369846216974850E+004	-2.7182633E-002	-2.4037633E-002	0
4.370346216975781E+004	-2.7048996E-002	-2.4037950E-002	0
4.370846216976712E+004	-2.7068088E-002	-2.4037886E-002	0
4.371346216977644E+004	-2.7048996E-002	-2.4037251E-002	0
4.371846216978575E+004	-2.6953541E-002	-2.4037570E-002	0
4.372346216979506E+004	-2.6953541E-002	-2.4037505E-002	0
4.372846216980438E+004	-2.6896268E-002	-2.4037443E-002	0
4.373346216981369E+004	-2.6972633E-002	-2.4037633E-002	0
4.373846216982300E+004	-2.7010813E-002	-2.4037188E-002	0
4.374346216983232E+004	-2.6953541E-002	-2.4037315E-002	0
4.374846216984163E+004	-2.6915358E-002	-2.4037950E-002	0
4.375346216985094E+004	-2.6953541E-002	-2.4037443E-002	0
4.375846216986026E+004	-2.6838996E-002	-2.4037505E-002	0
4.376346216986957E+004	-2.6838996E-002	-2.4037443E-002	0
4.376846216987888E+004	-2.6877176E-002	-2.4037760E-002	0
4.377346216988820E+004	-2.6877176E-002	-2.4037188E-002	0
4.377846216989751E+004	-2.6838996E-002	-2.4037443E-002	0
4.378346216990682E+004	-2.6934450E-002	-2.4037188E-002	0
4.378846216991614E+004	-2.6858086E-002	-2.4037188E-002	0
4.379346216992545E+004	-2.6819903E-002	-2.4036933E-002	0
4.379846216993476E+004	-2.6858086E-002	-2.4037251E-002	0
4.380346216994408E+004	-2.6934450E-002	-2.4037570E-002	0
4.380846216995339E+004	-2.6609903E-002	-2.4037886E-002	0
4.381346216996270E+004	-2.6800813E-002	-2.4037315E-002	0
4.381846216997202E+004	-2.6724448E-002	-2.4037251E-002	0
4.382346216998133E+004	-2.6667176E-002	-2.4037950E-002	0
4.382846216999064E+004	-2.6705358E-002	-2.4037633E-002	0
4.383346216999996E+004	-2.6819903E-002	-2.4037443E-002	0
4.383846217000927E+004	-2.6819903E-002	-2.4037251E-002	0
4.384346217001858E+004	-2.6819903E-002	-2.4037061E-002	0
4.384846217002789E+004	-2.6743541E-002	-2.4037570E-002	0
4.385346217003721E+004	-2.6667176E-002	-2.4037505E-002	0
4.385846217004652E+004	-2.6743541E-002	-2.4037123E-002	0
4.386346217005583E+004	-2.6667176E-002	-2.4036551E-002	0
4.386846217006515E+004	-2.6648086E-002	-2.4037123E-002	0
4.387346217007446E+004	-2.6552631E-002	-2.4037378E-002	0
4.387846217008377E+004	-2.6686266E-002	-2.4037633E-002	0
4.388346217009309E+004	-2.6648086E-002	-2.4037378E-002	0
4.388846217010240E+004	-2.6800813E-002	-2.4037570E-002	0
4.389346217011171E+004	-2.6609903E-002	-2.4037443E-002	0
4.389846217012103E+004	-2.6590811E-002	-2.4037443E-002	0
4.390346217013034E+004	-2.6628993E-002	-2.4037378E-002	0
4.390846217013965E+004	-2.6628993E-002	-2.4037378E-002	0
4.391346217014897E+004	-2.6628993E-002	-2.4037570E-002	0
4.391846217015828E+004	-2.6533538E-002	-2.4036933E-002	0
4.392346217016759E+004	-2.6552631E-002	-2.4037696E-002	0
4.392846217017691E+004	-2.6628993E-002	-2.4037378E-002	0
4.393346217018622E+004	-2.6533538E-002	-2.4037443E-002	0
4.393846217019553E+004	-2.6590811E-002	-2.4037123E-002	0
4.394346217020485E+004	-2.6514448E-002	-2.4037505E-002	0
4.394846217021416E+004	-2.6571721E-002	-2.4037633E-002	0
4.395346217022347E+004	-2.6552631E-002	-2.4036996E-002	0
4.395846217023279E+004	-2.6552631E-002	-2.4037315E-002	0
4.396346217024210E+004	-2.6533538E-002	-2.4037315E-002	0
4.396846217025141E+004	-2.6609903E-002	-2.4037378E-002	0
4.397346217026073E+004	-2.6571721E-002	-2.4037378E-002	0
4.397846217027004E+004	-2.6628993E-002	-2.4037633E-002	0
4.398346217027935E+004	-2.6552631E-002	-2.4037760E-002	0
4.398846217028867E+004	-2.6590811E-002	-2.4037505E-002	0
4.399346217029798E+004	-2.6476266E-002	-2.4037633E-002	0
4.399846217030729E+004	-2.6552631E-002	-2.4037633E-002	0
4.400346217031660E+004	-2.6533538E-002	-2.4037378E-002	0
4.400846217032592E+004	-2.6628993E-002	-2.4037570E-002	0
4.401346217033523E+004	-2.6457174E-002	-2.4036933E-002	0
4.401846217034454E+004	-2.6514448E-002	-2.4037696E-002	0
4.402346217035386E+004	-2.6552631E-002	-2.4037760E-002	0
4.402846217036317E+004	-2.6457174E-002	-2.4037570E-002	0
4.403346217037248E+004	-2.6552631E-002	-2.4038076E-002	0
4.403846217038180E+004	-2.6495356E-002	-2.4037886E-002	0
4.404346217039111E+004	-2.6552631E-002	-2.4037505E-002	0
4.404846217040042E+004	-2.6514448E-002	-2.4036996E-002	0
4.405346217040974E+004	-2.6514448E-002	-2.4037315E-002	0
4.405846217041905E+004	-2.6438083E-002	-2.4037950E-002	0
4.406346217042836E+004	-2.6361719E-002	-2.4037505E-002	0
4.406846217043768E+004	-2.6514448E-002	-2.4037378E-002	0
4.407346217044699E+004	-2.6495356E-002	-2.4037505E-002	0
4.407846217045630E+004	-2.6361719E-002	-2.4037061E-002	0
4.408346217046562E+004	-2.6418993E-002	-2.4037061E-002	0
4.408846217047493E+004	-2.6552631E-002	-2.4036933E-002	0
4.409346217048424E+004	-2.6533538E-002	-2.4036806E-002	0
4.409846217049356E+004	-2.6342629E-002	-2.4037696E-002	0
4.410346217050287E+004	-2.6438083E-002	-2.4037696E-002	0
4.410846217051218E+004	-2.6438083E-002	-2.4037760E-002	0
4.411346217052150E+004	-2.6361719E-002	-2.4037886E-002	0
4.411846217053081E+004	-2.6361719E-002	-2.4037378E-002	0
4.412346217054012E+004	-2.6361719E-002	-2.4037950E-002	0
4.412846217054944E+004	-2.6380811E-002	-2.4037251E-002	0
4.413346217055875E+004	-2.6418993E-002	-2.4036679E-002	0
4.413846217056806E+004	-2.6457174E-002	-2.4037378E-002	0
4.414346217057738E+004	-2.6418993E-002	-2.4037251E-002	0
4.414846217058669E+004	-2.6361719E-002	-2.4037570E-002	0
4.415346217059600E+004	-2.6399901E-002	-2.4037315E-002	0
4.415846217060531E+004	-2.6285356E-002	-2.4037251E-002	0
4.416346217061463E+004	-2.6323538E-002	-2.4037633E-002	0
4.416846217062394E+004	-2.6361719E-002	-2.4037315E-002	0
4.417346217063325E+004	-2.6304446E-002	-2.4037886E-002	0
4.417846217064257E+004	-2.6399901E-002	-2.4037570E-002	0
4.418346217065188E+004	-2.6285356E-002	-2.4037061E-002	0
4.418846217066119E+004	-2.6342629E-002	-2.4037886E-002	0
4.419346217067051E+004	-2.6304446E-002	-2.4037825E-002	0
4.419846217067982E+004	-2.6285356E-002	-2.4036741E-002	0
4.420346217068913E+004	-2.6514448E-002	-2.4036996E-002	0
4.420846217069845E+004	-2.6285356E-002	-2.4037760E-002	0
4.421346217070776E+004	-2.6228083E-002	-2.4037443E-002	0
4.421846217071707E+004	-2.6380811E-002	-2.4037315E-002	0
4.422346217072639E+004	-2.6342629E-002	-2.4037123E-002	0
4.422846217073570E+004	-2.6342629E-002	-2.4036933E-002	0
4.423346217074501E+004	-2.6285356E-002	-2.4037315E-002	0
4.423846217075433E+004	-2.6285356E-002	-2.4037378E-002	0
4.424346217076364E+004	-2.6361719E-002	-2.4038397E-002	0
4.424846217077295E+004	-2.6323538E-002	-2.4037378E-002	0
4.425346217078227E+004	-2.6151719E-002	-2.4037378E-002	0
4.425846217079158E+004	-2.6247174E-002	-2.4037633E-002	0
4.426346217080089E+004	-2.6247174E-002	-2.4037633E-002	0
4.426846217081021E+004	-2.6285356E-002	-2.4037251E-002	0
4.427346217081952E+004	-2.6247174E-002	-2.4037825E-002	0
4.427846217082883E+004	-2.6208991E-002	-2.4037315E-002	0
4.428346217083815E+004	-2.6304446E-002	-2.4037123E-002	0
4.428846217084746E+004	-2.6151719E-002	-2.4037570E-002	0
4.429346217085677E+004	-2.6189901E-002	-2.4037123E-002	0
4.429846217086609E+004	-2.6208991E-002	-2.4037950E-002	0
4.430346217087540E+004	-2.6342629E-002	-2.4037378E-002	0
4.430846217088471E+004	-2.6228083E-002	-2.4037633E-002	0
4.431346217089402E+004	-2.6285356E-002	-2.4037378E-002	0
4.431846217090334E+004	-2.6151719E-002	-2.4037505E-002	0
4.432346217091265E+004	-2.6285356E-002	-2.4037443E-002	0
4.432846217092196E+004	-2.6189901E-002	-2.4037315E-002	0
4.433346217093128E+004	-2.6304446E-002	-2.4037378E-002	0
4.433846217094059E+004	-2.6113536E-002	-2.4037825E-002	0
4.434346217094990E+004	-2.6266264E-002	-2.4036616E-002	0
4.434846217095922E+004	-2.6151719E-002	-2.4037251E-002	0
4.435346217096853E+004	-2.6132626E-002	-2.4037443E-002	0
4.435846217097784E+004	-2.6323538E-002	-2.4037760E-002	0
4.436346217098716E+004	-2.6285356E-002	-2.4037505E-002	0
4.436846217099647E+004	-2.6170809E-002	-2.4037378E-002	0
4.437346217100578E+004	-2.6132626E-002	-2.4037505E-002	0
4.437846217101510E+004	-2.6189901E-002	-2.4037188E-002	0
4.438346217102441E+004	-2.6247174E-002	-2.4037315E-002	0
4.438846217103372E+004	-2.6228083E-002	-2.4037188E-002	0
4.439346217104304E+004	-2.6094446E-002	-2.4037570E-002	0
4.439846217105235E+004	-2.6247174E-002	-2.4037443E-002	0
4.440346217106166E+004	-2.6132626E-002	-2.4037061E-002	0
4.440846217107098E+004	-2.6132626E-002	-2.4037633E-002	0
4.441346217108029E+004	-2.6094446E-002	-2.4037188E-002	0
4.441846217108960E+004	-2.6056264E-002	-2.4037633E-002	0
4.442346217109892E+004	-2.6151719E-002	-2.4037123E-002	0
4.442846217110823E+004	-2.6170809E-002	-2.4037570E-002	0
4.443346217111754E+004	-2.6113536E-002	-2.4037633E-002	0
4.443846217112686E+004	-2.6170809E-002	-2.4037251E-002	0
4.444346217113617E+004	-2.6094446E-002	-2.4037378E-002	0
4.444846217114548E+004	-2.6285356E-002	-2.4037633E-002	0
4.445346217115480E+004	-2.6228083E-002	-2.4037570E-002	0
4.445846217116411E+004	-2.6170809E-002	-2.4037696E-002	0
4.446346217117342E+004	-2.6113536E-002	-2.4037760E-002	0
4.446846217118273E+004	-2.6056264E-002	-2.4037950E-002	0
4.447346217119205E+004	-2.6151719E-002	-2.4037633E-002	0
4.447846217120136E+004	-2.6094446E-002	-2.4037570E-002	0
4.448346217121067E+004	-2.6113536E-002	-2.4037378E-002	0
4.448846217121999E+004	-2.6075354E-002	-2.4037696E-002	0
4.449346217122930E+004	-2.6056264E-002	-2.4037315E-002	0
4.449846217123861E+004	-2.6151719E-002	-2.4037123E-002	0
4.450346217124793E+004	-2.6018081E-002	-2.4037633E-002	0
4.450846217125724E+004	-2.6018081E-002	-2.4037570E-002	0
4.451346217126655E+004	-2.6018081E-002	-2.4037443E-002	0
4.451846217127587E+004	-2.6132626E-002	-2.4037505E-002	0
4.452346217128518E+004	-2.6018081E-002	-2.4037760E-002	0
4.452846217129449E+004	-2.6037171E-002	-2.4037061E-002	0
4.453346217130381E+004	-2.6056264E-002	-2.4037443E-002	0
4.453846217131312E+004	-2.6056264E-002	-2.4037188E-002	0
4.454346217132243E+004	-2.5979899E-002	-2.4037696E-002	0
4.454846217133175E+004	-2.6037171E-002	-2.4037188E-002	0
4.455346217134106E+004	-2.5979899E-002	-2.4037188E-002	0
4.455846217135037E+004	-2.6037171E-002	-2.4037315E-002	0
4.456346217135969E+004	-2.5941717E-002	-2.4037251E-002	0
4.456846217136900E+004	-2.6037171E-002	-2.4037378E-002	0
4.457346217137831E+004	-2.5941717E-002	-2.4037505E-002	0
4.457846217138763E+004	-2.6056264E-002	-2.4037251E-002	0
4.458346217139694E+004	-2.5884444E-002	-2.4037188E-002	0
4.458846217140625E+004	-2.5979899E-002	-2.4037886E-002	0
4.459346217141557E+004	-2.5941717E-002	-2.4037315E-002	0
4.459846217142488E+004	-2.5884444E-002	-2.4037315E-002	0
4.460346217143419E+004	-2.5998991E-002	-2.4037188E-002	0
4.460846217144351E+004	-2.5865354E-002	-2.4037188E-002	0
4.461346217145282E+004	-2.5998991E-002	-2.4037251E-002	0
4.461846217146213E+004	-2.5884444E-002	-2.4037825E-002	0
4.462346217147144E+004	-2.6037171E-002	-2.4037443E-002	0
4.462846217148076E+004	-2.5922626E-002	-2.4037251E-002	0
4.463346217149007E+004	-2.5846262E-002	-2.4037633E-002	0
4.463846217149938E+004	-2.5865354E-002	-2.4037825E-002	0
4.464346217150870E+004	-2.5846262E-002	-2.4037570E-002	0
4.464846217151801E+004	-2.5655352E-002	-2.4037760E-002	0
4.465346217152732E+004	-2.5941717E-002	-2.4037443E-002	0
4.465846217153664E+004	-2.5884444E-002	-2.4036806E-002	0
4.466346217154595E+004	-2.5884444E-002	-2.4036996E-002	0
4.466846217155526E+004	-2.5846262E-002	-2.4037123E-002	0
4.467346217156458E+004	-2.5788989E-002	-2.4037315E-002	0
4.467846217157389E+004	-2.5903536E-002	-2.4036806E-002	0
4.468346217158320E+004	-2.5903536E-002	-2.4037696E-002	0
4.468846217159252E+004	-2.5960809E-002	-2.4037061E-002	0
4.469346217160183E+004	-2.5865354E-002	-2.4036996E-002	0
4.469846217161114E+004	-2.5903536E-002	-2.4037886E-002	0
4.470346217162046E+004	-2.5808081E-002	-2.4037188E-002	0
4.470846217162977E+004	-2.5941717E-002	-2.4037315E-002	0
4.471346217163908E+004	-2.5922626E-002	-2.4037123E-002	0
4.471846217164840E+004	-2.5769899E-002	-2.4037570E-002	0
4.472346217165771E+004	-2.5788989E-002	-2.4037570E-002	0
4.472846217166702E+004	-2.5731716E-002	-2.4037825E-002	0
4.473346217167634E+004	-2.5865354E-002	-2.4036806E-002	0
4.473846217168565E+004	-2.5750807E-002	-2.4037251E-002	0
4.474346217169496E+004	-2.5788989E-002	-2.4037443E-002	0
4.474846217170428E+004	-2.5750807E-002	-2.4037696E-002	0
4.475346217171359E+004	-2.5827171E-002	-2.4037696E-002	0
4.475846217172290E+004	-2.5788989E-002	-2.4037315E-002	0
4.476346217173222E+004	-2.5827171E-002	-2.4037315E-002	0
4.476846217174153E+004	-2.5712624E-002	-2.4037123E-002	0
4.477346217175084E+004	-2.5712624E-002	-2.4037315E-002	0
4.477846217176015E+004	-2.5884444E-002	-2.4037760E-002	0
4.478346217176947E+004	-2.5712624E-002	-2.4037443E-002	0
4.478846217177878E+004	-2.5693534E-002	-2.4037443E-002	0
4.479346217178809E+004	-2.5769899E-002	-2.4036996E-002	0
4.479846217179741E+004	-2.5808081E-002	-2.4037378E-002	0
4.480346217180672E+004	-2.5788989E-002	-2.4037188E-002	0
4.480846217181603E+004	-2.5769899E-002	-2.4036933E-002	0
4.481346217182535E+004	-2.5808081E-002	-2.4037696E-002	0
4.481846217183466E+004	-2.5712624E-002	-2.4037443E-002	0
4.482346217184397E+004	-2.5655352E-002	-2.4037696E-002	0
4.482846217185329E+004	-2.5808081E-002	-2.4037378E-002	0
4.483346217186260E+004	-2.5788989E-002	-2.4037570E-002	0
4.483846217187191E+004	-2.5827171E-002	-2.4038142E-002	0
4.484346217188123E+004	-2.5712624E-002	-2.4037570E-002	0
4.484846217189054E+004	-2.5846262E-002	-2.4037760E-002	0
4.485346217189985E+004	-2.5769899E-002	-2.4037570E-002	0
4.485846217190917E+004	-2.5769899E-002	-2.4036996E-002	0
4.486346217191848E+004	-2.5636261E-002	-2.4037251E-002	0
4.486846217192779E+004	-2.5846262E-002	-2.4037570E-002	0
4.487346217193711E+004	-2.5750807E-002	-2.4037315E-002	0
4.487846217194642E+004	-2.5674444E-002	-2.4037378E-002	0
4.488346217195573E+004	-2.5693534E-002	-2.4037886E-002	0
4.488846217196505E+004	-2.5788989E-002	-2.4037443E-002	0
4.489346217197436E+004	-2.5674444E-002	-2.4037378E-002	0
4.489846217198367E+004	-2.5731716E-002	-2.4037123E-002	0
4.490346217199299E+004	-2.5769899E-002	-2.4037315E-002	0
4.490846217200230E+004	-2.5674444E-002	-2.4037251E-002	0
4.491346217201161E+004	-2.5731716E-002	-2.4037825E-002	0
4.491846217202093E+004	-2.5750807E-002	-2.4037633E-002	0
4.492346217203024E+004	-2.5655352E-002	-2.4037061E-002	0
4.492846217203955E+004	-2.5731716E-002	-2.4037443E-002	0
4.493346217204886E+004	-2.5731716E-002	-2.4037188E-002	0
4.493846217205818E+004	-2.5712624E-002	-2.4037570E-002	0
4.494346217206749E+004	-2.5769899E-002	-2.4037570E-002	0
4.494846217207680E+004	-2.5598079E-002	-2.4037443E-002	0
4.495346217208612E+004	-2.5617169E-002	-2.4036996E-002	0
4.495846217209543E+004	-2.5655352E-002	-2.4037251E-002	0
4.496346217210474E+004	-2.5674444E-002	-2.4037696E-002	0
4.496846217211406E+004	-2.5712624E-002	-2.4037443E-002	0
4.497346217212337E+004	-2.5731716E-002	-2.4037315E-002	0
4.497846217213268E+004	-2.5540806E-002	-2.4037061E-002	0
4.498346217214200E+004	-2.5655352E-002	-2.4038076E-002	0
4.498846217215131E+004	-2.5578989E-002	-2.4037123E-002	0
4.499346217216062E+004	-2.5712624E-002	-2.4037760E-002	0
4.499846217216994E+004	-2.5617169E-002	-2.4036679E-002	0
4.500346217217925E+004	-2.5578989E-002	-2.4037315E-002	0
4.500846217218856E+004	-2.5636261E-002	-2.4037315E-002	0
4.501346217219788E+004	-2.5750807E-002	-2.4037251E-002	0
4.501846217220719E+004	-2.5540806E-002	-2.4036933E-002	0
4.502230817221443E+004	-2.5578989E-002	-2.4037315E-002	0