time/s	Ewe/V	I/mA	error	
6.500943835772196E+002	-1.3767619E-001	-1.9433649E+000	0
6.500945835772145E+002	-1.8393984E-001	-1.9597123E+000	0
6.500947835772095E+002	-1.9957449E-001	-1.9597504E+000	0
6.500949835772044E+002	-2.1036090E-001	-1.9598076E+000	0
6.500951835771994E+002	-2.1948642E-001	-1.9598203E+000	0
6.500953835771943E+002	-2.2769555E-001	-1.9598012E+000	0
6.500955835771892E+002	-2.3529378E-001	-1.9597695E+000	0
6.500957835771842E+002	-2.4231927E-001	-1.9597950E+000	0
6.500959835771791E+002	-2.4881022E-001	-1.9598012E+000	0
6.500961835771741E+002	-2.5493842E-001	-1.9598267E+000	0
6.500963835771690E+002	-2.6058936E-001	-1.9598395E+000	0
6.500965835771640E+002	-2.6606849E-001	-1.9598076E+000	0
6.500967835771589E+002	-2.7128032E-001	-1.9597950E+000	0
6.500969835771539E+002	-2.7635854E-001	-1.9598076E+000	0
6.500971835771488E+002	-2.8111219E-001	-1.9597950E+000	0
6.500973835771438E+002	-2.8557950E-001	-1.9598522E+000	0
6.500975835771387E+002	-2.9014224E-001	-1.9598012E+000	0
6.500977835771337E+002	-2.9439953E-001	-1.9598904E+000	0
6.500979835771286E+002	-2.9844683E-001	-1.9598650E+000	0
6.500981835771236E+002	-3.0239868E-001	-1.9598076E+000	0
6.500983835771185E+002	-3.0604506E-001	-1.9598967E+000	0
6.500985835771135E+002	-3.0980599E-001	-1.9598331E+000	0
6.500987835771084E+002	-3.1337601E-001	-1.9598522E+000	0
6.500989835771034E+002	-3.1681240E-001	-1.9598267E+000	0
6.500991835770983E+002	-3.2007697E-001	-1.9598267E+000	0
6.500993835770932E+002	-3.2316971E-001	-1.9598967E+000	0
6.500995835770882E+002	-3.2639608E-001	-1.9598522E+000	0
6.500997835770831E+002	-3.2941246E-001	-1.9598395E+000	0
6.500999835770781E+002	-3.3242884E-001	-1.9598331E+000	0
6.501001835770730E+002	-3.3533067E-001	-1.9598840E+000	0
6.501003835770680E+002	-3.3813706E-001	-1.9598650E+000	0
6.501005835770629E+002	-3.4079072E-001	-1.9598395E+000	0
6.501007835770579E+002	-3.4338710E-001	-1.9598458E+000	0
6.501009835770528E+002	-3.4602165E-001	-1.9598713E+000	0
6.501011835770478E+002	-3.4857985E-001	-1.9598840E+000	0
6.501013835770427E+002	-3.5106167E-001	-1.9598585E+000	0
6.501015835770377E+002	-3.5335261E-001	-1.9598904E+000	0
6.501017835770326E+002	-3.5552898E-001	-1.9598585E+000	0
6.501019835770276E+002	-3.5793445E-001	-1.9598776E+000	0
6.501021835770225E+002	-3.6001536E-001	-1.9598713E+000	0
6.501023835770175E+002	-3.6213446E-001	-1.9598458E+000	0
6.501025835770124E+002	-3.6436811E-001	-1.9598776E+000	0
6.501027835770074E+002	-3.6637267E-001	-1.9598585E+000	0
6.501029835770023E+002	-3.6849177E-001	-1.9598522E+000	0
6.501031835769973E+002	-3.7038177E-001	-1.9599348E+000	0
6.501033835769922E+002	-3.7232906E-001	-1.9598458E+000	0
6.501035835769871E+002	-3.7404725E-001	-1.9599096E+000	0
6.501037835769821E+002	-3.7578455E-001	-1.9599031E+000	0
6.501039835769770E+002	-3.7773183E-001	-1.9599222E+000	0
6.501041835769720E+002	-3.7941182E-001	-1.9598840E+000	0
6.501043835769669E+002	-3.8113001E-001	-1.9598713E+000	0
6.501045835769619E+002	-3.8286731E-001	-1.9598967E+000	0
6.501047835769568E+002	-3.8435641E-001	-1.9598776E+000	0
6.501049835769518E+002	-3.8586459E-001	-1.9599603E+000	0
6.501051835769467E+002	-3.8756371E-001	-1.9599158E+000	0
6.501053835769417E+002	-3.8914824E-001	-1.9598840E+000	0
6.501055835769366E+002	-3.9050370E-001	-1.9598776E+000	0
6.501057835769316E+002	-3.9191645E-001	-1.9598840E+000	0
6.501059835769265E+002	-3.9325282E-001	-1.9598840E+000	0
6.501061835769215E+002	-3.9470375E-001	-1.9599222E+000	0
6.501063835769164E+002	-3.9605919E-001	-1.9598904E+000	0
6.501065835769114E+002	-3.9747193E-001	-1.9599222E+000	0
6.501067835769063E+002	-3.9859831E-001	-1.9598967E+000	0
6.501069835769013E+002	-3.9999193E-001	-1.9599286E+000	0
6.501071835768962E+002	-4.0108013E-001	-1.9598395E+000	0
6.501073835768912E+002	-4.0243560E-001	-1.9598650E+000	0
6.501075835768861E+002	-4.0352377E-001	-1.9598458E+000	0
6.501077835768810E+002	-4.0482196E-001	-1.9599222E+000	0
6.501079835768760E+002	-4.0592924E-001	-1.9599096E+000	0
6.501081835768709E+002	-4.0696016E-001	-1.9599096E+000	0
6.501083835768659E+002	-4.0806744E-001	-1.9599158E+000	0
6.501085835768608E+002	-4.0930834E-001	-1.9599031E+000	0
6.501089835768507E+002	-4.1138929E-001	-1.9598967E+000	0
6.501093835768406E+002	-4.1333658E-001	-1.9599539E+000	0
6.501097835768305E+002	-4.1513112E-001	-1.9599477E+000	0
6.501099835768255E+002	-4.1616204E-001	-1.9599477E+000	0
6.501103835768154E+002	-4.1782296E-001	-1.9599539E+000	0
6.501107835768053E+002	-4.1965568E-001	-1.9598904E+000	0
6.501111835767952E+002	-4.2131659E-001	-1.9598522E+000	0
6.501115835767851E+002	-4.2292026E-001	-1.9599286E+000	0
6.501119835767749E+002	-4.2454299E-001	-1.9599286E+000	0
6.501123835767648E+002	-4.2593664E-001	-1.9598967E+000	0
6.501127835767547E+002	-4.2721573E-001	-1.9599986E+000	0
6.501131835767446E+002	-4.2860937E-001	-1.9599413E+000	0
6.501135835767345E+002	-4.2994574E-001	-1.9599348E+000	0
6.501139835767244E+002	-4.3118665E-001	-1.9598967E+000	0
6.501143835767143E+002	-4.3237031E-001	-1.9599795E+000	0
6.501147835767042E+002	-4.3347758E-001	-1.9599348E+000	0
6.501151835766941E+002	-4.3452758E-001	-1.9598585E+000	0
6.501155835766840E+002	-4.3555850E-001	-1.9599477E+000	0
6.501161835766688E+002	-4.3702850E-001	-1.9599158E+000	0
6.501167835766537E+002	-4.3813580E-001	-1.9599603E+000	0
6.501173835766385E+002	-4.3947217E-001	-1.9599348E+000	0
6.501179835766234E+002	-4.4050306E-001	-1.9599286E+000	0
6.501187835766032E+002	-4.4191581E-001	-1.9599096E+000	0
6.501199835765728E+002	-4.4315672E-001	-1.9599413E+000	0
6.501215835765324E+002	-4.4416854E-001	-1.9599668E+000	0
6.501237835764769E+002	-4.4308037E-001	-1.9599539E+000	0
6.501245835764566E+002	-4.4197309E-001	-1.9599096E+000	0
6.501251835764415E+002	-4.4094217E-001	-1.9599031E+000	0
6.501257835764263E+002	-4.3972033E-001	-1.9598840E+000	0
6.501261835764162E+002	-4.3865123E-001	-1.9599477E+000	0
6.501265835764061E+002	-4.3760124E-001	-1.9599031E+000	0
6.501269835763960E+002	-4.3647486E-001	-1.9598904E+000	0
6.501273835763859E+002	-4.3536758E-001	-1.9599348E+000	0
6.501277835763758E+002	-4.3395486E-001	-1.9599096E+000	0
6.501281835763657E+002	-4.3261850E-001	-1.9599477E+000	0
6.501285835763556E+002	-4.3120575E-001	-1.9599413E+000	0
6.501289835763455E+002	-4.2985028E-001	-1.9599986E+000	0
6.501293835763354E+002	-4.2839938E-001	-1.9599730E+000	0
6.501297835763253E+002	-4.2704391E-001	-1.9598650E+000	0
6.501301835763152E+002	-4.2536390E-001	-1.9599603E+000	0
6.501305835763051E+002	-4.2395118E-001	-1.9599603E+000	0
6.501309835762950E+002	-4.2246208E-001	-1.9599031E+000	0
6.501313835762849E+002	-4.2091569E-001	-1.9598776E+000	0
6.501317835762748E+002	-4.1938841E-001	-1.9599413E+000	0
6.501321835762647E+002	-4.1784203E-001	-1.9599348E+000	0
6.501325835762545E+002	-4.1631475E-001	-1.9599986E+000	0
6.501329835762444E+002	-4.1484475E-001	-1.9599860E+000	0
6.501333835762343E+002	-4.1347021E-001	-1.9599413E+000	0
6.501337835762242E+002	-4.1209564E-001	-1.9599668E+000	0
6.501341835762141E+002	-4.1066381E-001	-1.9598776E+000	0
6.501345835762040E+002	-4.0919381E-001	-1.9600177E+000	0
6.501349835761939E+002	-4.0776199E-001	-1.9599096E+000	0
6.501353835761838E+002	-4.0640652E-001	-1.9599603E+000	0
6.501357835761737E+002	-4.0512744E-001	-1.9599348E+000	0
6.501361835761636E+002	-4.0386742E-001	-1.9598904E+000	0
6.501365835761535E+002	-4.0249285E-001	-1.9599477E+000	0
6.501369835761434E+002	-4.0123287E-001	-1.9599348E+000	0
6.501373835761333E+002	-4.0004921E-001	-1.9599477E+000	0
6.501377835761232E+002	-3.9880830E-001	-1.9599348E+000	0
6.501381835761131E+002	-3.9762467E-001	-1.9599668E+000	0
6.501385835761030E+002	-3.9661282E-001	-1.9598585E+000	0
6.501389835760929E+002	-3.9556283E-001	-1.9599286E+000	0
6.501393835760828E+002	-3.9436010E-001	-1.9599603E+000	0
6.501397835760727E+002	-3.9325282E-001	-1.9599286E+000	0
6.501401835760626E+002	-3.9218372E-001	-1.9599286E+000	0
6.501407835760474E+002	-3.9073280E-001	-1.9599222E+000	0
6.501413835760322E+002	-3.8933915E-001	-1.9599348E+000	0
6.501419835760171E+002	-3.8792643E-001	-1.9599668E+000	0
6.501423835760070E+002	-3.8689551E-001	-1.9598713E+000	0
6.501429835759918E+002	-3.8573095E-001	-1.9599477E+000	0
6.501435835759767E+002	-3.8443276E-001	-1.9599158E+000	0
6.501441835759615E+002	-3.8309640E-001	-1.9599348E+000	0
6.501447835759463E+002	-3.8195094E-001	-1.9598840E+000	0
6.501453835759312E+002	-3.8084367E-001	-1.9600114E+000	0
6.501459835759160E+002	-3.7969819E-001	-1.9599158E+000	0
6.501465835759009E+002	-3.7866727E-001	-1.9599286E+000	0
6.501471835758857E+002	-3.7765545E-001	-1.9599795E+000	0
6.501479835758655E+002	-3.7633818E-001	-1.9598840E+000	0
6.501487835758453E+002	-3.7519270E-001	-1.9599668E+000	0
6.501495835758251E+002	-3.7406635E-001	-1.9598904E+000	0
6.501503835758049E+002	-3.7286362E-001	-1.9598776E+000	0
6.501511835757847E+002	-3.7179452E-001	-1.9599539E+000	0
6.501519835757645E+002	-3.7070632E-001	-1.9599348E+000	0
6.501529835757392E+002	-3.6952269E-001	-1.9599222E+000	0
6.501541835757089E+002	-3.6831996E-001	-1.9599477E+000	0
6.501551835756836E+002	-3.6715540E-001	-1.9599730E+000	0
6.501563835756533E+002	-3.6608630E-001	-1.9599539E+000	0
6.501573835756280E+002	-3.6507449E-001	-1.9599158E+000	0
6.501585835755977E+002	-3.6394811E-001	-1.9598840E+000	0
6.501599835755624E+002	-3.6289811E-001	-1.9599923E+000	0
6.501613835755270E+002	-3.6175263E-001	-1.9599668E+000	0
6.501629835754866E+002	-3.6058810E-001	-1.9598967E+000	0
6.501647835754411E+002	-3.5951900E-001	-1.9599539E+000	0
6.501669835753855E+002	-3.5837352E-001	-1.9599222E+000	0
6.501691835753300E+002	-3.5724717E-001	-1.9598840E+000	0
6.501711835752794E+002	-3.5623533E-001	-1.9598967E+000	0
6.501741835752036E+002	-3.5516626E-001	-1.9599413E+000	0
6.501769835751329E+002	-3.5409716E-001	-1.9599348E+000	0
6.501809835750319E+002	-3.5304713E-001	-1.9599413E+000	0
6.501857835749106E+002	-3.5199714E-001	-1.9599668E+000	0
6.501921835747489E+002	-3.5096622E-001	-1.9599539E+000	0
6.502003835745418E+002	-3.4993529E-001	-1.9599413E+000	0
6.502213835740113E+002	-3.4888530E-001	-1.9599096E+000	0
6.502907835722581E+002	-3.4989712E-001	-1.9599286E+000	0
6.503469835708383E+002	-3.5092804E-001	-1.9599413E+000	0
6.507403835609002E+002	-3.4991622E-001	-1.9599348E+000	0
6.508303835586266E+002	-3.4890440E-001	-1.9599730E+000	0
6.509155835564743E+002	-3.4787348E-001	-1.9599348E+000	0
6.509961835544382E+002	-3.4686166E-001	-1.9598967E+000	0
6.510759835524223E+002	-3.4579256E-001	-1.9599986E+000	0
6.511541835504468E+002	-3.4470436E-001	-1.9599539E+000	0
6.512439835481782E+002	-3.4367344E-001	-1.9599096E+000	0
6.513207835462381E+002	-3.4264255E-001	-1.9599222E+000	0
6.514037835441413E+002	-3.4163073E-001	-1.9599031E+000	0
6.514869835420395E+002	-3.4061888E-001	-1.9599158E+000	0
6.515745835398266E+002	-3.3960706E-001	-1.9599539E+000	0
6.516543835378106E+002	-3.3859524E-001	-1.9599222E+000	0
6.517423835355876E+002	-3.3758342E-001	-1.9599413E+000	0
6.518405835331068E+002	-3.3653340E-001	-1.9599031E+000	0
6.519409835305705E+002	-3.3546433E-001	-1.9599923E+000	0
6.520405835280544E+002	-3.3437613E-001	-1.9599539E+000	0
6.521539835251897E+002	-3.3334520E-001	-1.9599348E+000	0
6.522633835224260E+002	-3.3231431E-001	-1.9599031E+000	0
6.523765835195663E+002	-3.3130246E-001	-1.9599603E+000	0
6.524943835165905E+002	-3.3029065E-001	-1.9599096E+000	0
6.526223835133569E+002	-3.2927883E-001	-1.9599096E+000	0
6.527407835103659E+002	-3.2826701E-001	-1.9599668E+000	0
6.528841835067433E+002	-3.2723609E-001	-1.9599031E+000	0
6.530339835029590E+002	-3.2622427E-001	-1.9599413E+000	0
6.531805834992556E+002	-3.2521245E-001	-1.9599158E+000	0
6.533463834950671E+002	-3.2418153E-001	-1.9599923E+000	0
6.535159834907827E+002	-3.2315060E-001	-1.9599031E+000	0
6.537041834860283E+002	-3.2213879E-001	-1.9599730E+000	0
6.538977834811376E+002	-3.2112697E-001	-1.9599158E+000	0
6.540805834765197E+002	-3.2011515E-001	-1.9599222E+000	0
6.543243834703608E+002	-3.1908423E-001	-1.9599668E+000	0
6.545675834642170E+002	-3.1807241E-001	-1.9599603E+000	0
6.548225834577752E+002	-3.1706059E-001	-1.9599286E+000	0
6.551193834502774E+002	-3.1602967E-001	-1.9599603E+000	0
6.554259834425320E+002	-3.1499875E-001	-1.9599286E+000	0
6.557999834330840E+002	-3.1392965E-001	-1.9599286E+000	0
6.562087834227568E+002	-3.1289873E-001	-1.9598904E+000	0
6.566827834107826E+002	-3.1186783E-001	-1.9599348E+000	0
6.572035833976261E+002	-3.1085598E-001	-1.9598776E+000	0
6.578913833802508E+002	-3.0984417E-001	-1.9599096E+000	0
6.587273833591316E+002	-3.0881327E-001	-1.9599539E+000	0
6.598821833299589E+002	-3.0778235E-001	-1.9599539E+000	0
6.625903832615440E+002	-3.0677053E-001	-1.9599603E+000	0
6.674799831380224E+002	-3.0780143E-001	-1.9599413E+000	0
6.699595830753824E+002	-3.0881327E-001	-1.9599286E+000	0
6.720097830235900E+002	-3.0986327E-001	-1.9599795E+000	0
6.738657829767035E+002	-3.1089419E-001	-1.9599096E+000	0
6.757145829299989E+002	-3.1190601E-001	-1.9598840E+000	0
6.772985828899837E+002	-3.1291783E-001	-1.9600114E+000	0
6.787295828538336E+002	-3.1394875E-001	-1.9599348E+000	0
6.802347828158090E+002	-3.1496057E-001	-1.9599477E+000	0
6.818859827740962E+002	-3.1597239E-001	-1.9598776E+000	0
6.833477827371680E+002	-3.1698421E-001	-1.9599286E+000	0
6.847941827006289E+002	-3.1803423E-001	-1.9600050E+000	0
6.862963826626801E+002	-3.1904605E-001	-1.9599413E+000	0
6.877533826258732E+002	-3.2005787E-001	-1.9599730E+000	0
6.891073825916683E+002	-3.2106969E-001	-1.9599413E+000	0
6.905719825546694E+002	-3.2208151E-001	-1.9599348E+000	0
6.919519825198076E+002	-3.2309332E-001	-1.9599286E+000	0
6.934341824823641E+002	-3.2410517E-001	-1.9599986E+000	0
6.948463824466889E+002	-3.2513607E-001	-1.9599603E+000	0
6.962515824111906E+002	-3.2614791E-001	-1.9599986E+000	0
6.976711823753285E+002	-3.2715973E-001	-1.9599923E+000	0
6.990973823392997E+002	-3.2820973E-001	-1.9599096E+000	0
7.005835823017551E+002	-3.2922155E-001	-1.9599668E+000	0
7.020443822648522E+002	-3.3023337E-001	-1.9599413E+000	0
7.034907822283130E+002	-3.3126429E-001	-1.9599603E+000	0
7.049247821920872E+002	-3.3227611E-001	-1.9599096E+000	0
7.064061821546638E+002	-3.3328792E-001	-1.9599031E+000	0
7.078635821178468E+002	-3.3433795E-001	-1.9599413E+000	0
7.093971820791048E+002	-3.3534977E-001	-1.9598967E+000	0
7.108745820417826E+002	-3.3636159E-001	-1.9599286E+000	0
7.123145820054051E+002	-3.3741161E-001	-1.9599795E+000	0
7.138703819661023E+002	-3.3844250E-001	-1.9599539E+000	0
7.154007819274411E+002	-3.3945432E-001	-1.9599730E+000	0
7.169393818885728E+002	-3.4046617E-001	-1.9599603E+000	0
7.184661818500026E+002	-3.4147799E-001	-1.9599158E+000	0
7.200167818108312E+002	-3.4252799E-001	-1.9599668E+000	0
7.216095817705937E+002	-3.4353980E-001	-1.9599603E+000	0
7.231969817304926E+002	-3.4455162E-001	-1.9599222E+000	0
7.247217816919729E+002	-3.4556347E-001	-1.9599986E+000	0
7.263119816518010E+002	-3.4657529E-001	-1.9599413E+000	0
7.278913816119020E+002	-3.4760621E-001	-1.9599986E+000	0
7.295069815710885E+002	-3.4861803E-001	-1.9599031E+000	0
7.311211815303104E+002	-3.4962985E-001	-1.9599477E+000	0
7.327701814886532E+002	-3.5066077E-001	-1.9599158E+000	0
7.344413814464351E+002	-3.5171077E-001	-1.9599222E+000	0
7.361157814041362E+002	-3.5276076E-001	-1.9599539E+000	0
7.378097813613422E+002	-3.5377261E-001	-1.9599348E+000	0
7.395129813183157E+002	-3.5478443E-001	-1.9599668E+000	0
7.411025812781591E+002	-3.5579625E-001	-1.9599668E+000	0
7.428259812346223E+002	-3.5680807E-001	-1.9599096E+000	0
7.445101811920758E+002	-3.5781989E-001	-1.9599222E+000	0
7.462033811493020E+002	-3.5885081E-001	-1.9599096E+000	0
7.480183811034512E+002	-3.5986263E-001	-1.9599096E+000	0
7.497173810605309E+002	-3.6087444E-001	-1.9599795E+000	0
7.513901810182724E+002	-3.6188629E-001	-1.9598713E+000	0
7.530543809762312E+002	-3.6291718E-001	-1.9599222E+000	0
7.547767809327197E+002	-3.6392900E-001	-1.9599795E+000	0
7.564519808904006E+002	-3.6495993E-001	-1.9599286E+000	0
7.581401808477531E+002	-3.6597174E-001	-1.9599158E+000	0
7.599889808010485E+002	-3.6698359E-001	-1.9598904E+000	0
7.616023807602905E+002	-3.6799541E-001	-1.9600114E+000	0
7.633939807150309E+002	-3.6900723E-001	-1.9599795E+000	0
7.650309806736768E+002	-3.7001905E-001	-1.9599096E+000	0
7.667887806292711E+002	-3.7103087E-001	-1.9599923E+000	0
7.684217805880180E+002	-3.7206179E-001	-1.9599286E+000	0
7.702067805429251E+002	-3.7309271E-001	-1.9599413E+000	0
7.719763804982213E+002	-3.7414271E-001	-1.9599222E+000	0
7.737043804545683E+002	-3.7515453E-001	-1.9599730E+000	0
7.753315804134618E+002	-3.7616634E-001	-1.9599413E+000	0
7.770769803693693E+002	-3.7719727E-001	-1.9599348E+000	0
7.787319803275605E+002	-3.7820908E-001	-1.9599603E+000	0
7.804835802833113E+002	-3.7924001E-001	-1.9599413E+000	0
7.820239802443975E+002	-3.8025182E-001	-1.9599413E+000	0
7.837341802011942E+002	-3.8126364E-001	-1.9599477E+000	0
7.854103801588499E+002	-3.8227549E-001	-1.9599860E+000	0
7.870403801176726E+002	-3.8332549E-001	-1.9599795E+000	0
7.886777800763084E+002	-3.8435641E-001	-1.9599795E+000	0
7.903097800350806E+002	-3.8540640E-001	-1.9599348E+000	0
7.919385799939337E+002	-3.8643733E-001	-1.9599923E+000	0
7.935885799522512E+002	-3.8746825E-001	-1.9599603E+000	0
7.951329799132363E+002	-3.8848007E-001	-1.9599477E+000	0
7.967643798720237E+002	-3.8951099E-001	-1.9599348E+000	0
7.983123798329179E+002	-3.9052281E-001	-1.9599096E+000	0
7.998583797938627E+002	-3.9153463E-001	-1.9599730E+000	0
8.015017797523469E+002	-3.9254645E-001	-1.9599923E+000	0
8.029749797151308E+002	-3.9355826E-001	-1.9599096E+000	0
8.045067796764342E+002	-3.9457008E-001	-1.9599668E+000	0
8.060229796381318E+002	-3.9558193E-001	-1.9599860E+000	0
8.074835796012339E+002	-3.9659375E-001	-1.9599158E+000	0
8.089787795634620E+002	-3.9760557E-001	-1.9599286E+000	0
8.104687795258214E+002	-3.9861739E-001	-1.9599158E+000	0
8.118745794903080E+002	-3.9962921E-001	-1.9598967E+000	0
8.133723794524703E+002	-4.0069830E-001	-1.9600050E+000	0
8.148693794146529E+002	-4.0171012E-001	-1.9599603E+000	0
8.163053793783765E+002	-4.0272197E-001	-1.9600114E+000	0
8.177571793417010E+002	-4.0377197E-001	-1.9599860E+000	0
8.191667793060915E+002	-4.0478379E-001	-1.9599923E+000	0
8.205463792712399E+002	-4.0579560E-001	-1.9599923E+000	0
8.219951792346401E+002	-4.0682653E-001	-1.9599477E+000	0
8.233429792005918E+002	-4.0787652E-001	-1.9599413E+000	0
8.246887791665940E+002	-4.0888837E-001	-1.9599348E+000	0
8.261531791296002E+002	-4.0991926E-001	-1.9599603E+000	0
8.274625790965219E+002	-4.1093108E-001	-1.9600114E+000	0
8.287631790636660E+002	-4.1194293E-001	-1.9599539E+000	0
8.298049790373479E+002	-4.1295475E-001	-1.9600304E+000	0
8.300941790300421E+002	-4.1306928E-001	-1.9599413E+000	0